((8, 14, -1, -4, -1, 10, 18, -11), 1, 0.0)
((2, -21, 3, -14, -1, -6, 11, -1), 1, 0.020118837127222778)
((-5, 21, 6, -22, -4, 10, 18, 5), 1, 0.04349625875726767)
((1, 21, -20, -12, -13, -12, -9, -8), 1, 0.06752767801193844)
((0, -4, 29, 10, 0, 1, -4, 9), 1, 0.08892429079459856)
((39, 15, 6, 1, 3, -2, 1, -4), 1, 0.1091782608224633)
((-33, -7, -2, -5, -4, 10, -1, 4), 1, 0.13260585838186048)
((-42, -27, -3, -7, -7, -2, 0, -8), 1, 0.15330799068780365)
((-19, 12, -5, -1, -2, -4, 6, -7), 1, 0.17421139689217136)
((-45, -18, 1, 22, -2, 0, 8, -4), 1, 0.1961474009153686)
((-20, 15, -5, -4, 5, 2, 0, -2), 1, 0.21863191907534885)
((25, -13, 5, -1, -3, 4, 6, 4), 1, 0.23905922413188516)
((25, -13, 5, -1, -3, 4, 6, 4), 1, 0.2581089718552949)
((19, 24, 24, -18, -13, -4, 4, 7), 1, 0.2844342293347869)
((-62, -27, -4, -4, -2, -8, -6, -5), 1, 0.30472811203372735)
((28, 7, 5, 8, -1, 1, -2, 4), 1, 0.32509155681654256)
((72, 19, 19, 23, 5, 3, -3, 9), 1, 0.3514042703136965)
((5, -5, -5, -4, 2, 1, 11, -1), 1, 0.3747001560585439)
((54, 19, 9, -6, 1, -3, 5, 7), 1, 0.39559900081478866)
((9, 19, 0, 5, 5, -3, -1, 5), 1, 0.4215570617203844)
((-33, 7, -2, 11, 9, 2, 1, -4), 1, 0.4458188341052634)
((-50, 5, -10, -6, -3, 0, 7, 4), 1, 0.46809808709971157)
((69, 32, 5, 0, 1, 5, -6, 13), 1, 0.4892147410038265)
((2, -5, 10, -3, -8, -2, 3, 1), 1, 0.5131458083997927)
((23, 20, 5, -9, 6, 1, 0, 0), 1, 0.5341917598580022)
((24, 4, 15, 3, 1, 1, -5, -2), 1, 0.5544502913339898)
((-48, 4, 3, 5, 3, 1, 6, 1), 1, 0.5761559422269787)
((15, -5, 0, -1, -3, -1, 0, 1), 1, 0.6023626020552745)
((25, 96, 3, -7, -8, 0, -2, 11), 1, 0.6238589965156238)
((-18, -4, 7, -8, 2, -7, -2, -7), 1, 0.641829391576944)
((27, -12, -3, -19, -1, 0, -1, 5), 1, 0.6637602639710029)
((-34, 12, 2, 4, 3, 4, 4, -2), 1, 0.6953847838073153)
((-9, 7, -2, 8, 2, 2, -3, -1), 1, 0.7239742300988294)
((13, -12, 0, 0, -6, 0, 5, 8), 1, 0.7440679792613761)
((9, 21, 2, -1, 1, 1, 3, 2), 1, 0.7665171461984036)
((-1, -11, 1, 6, 3, 1, 3, -1), 1, 0.7894281597578783)
((0, 2, 1, 9, 8, 1, 5, 2), 1, 0.8111794251320967)
((2, -14, 0, 2, -5, -6, -10, -8), 1, 0.8325041951068206)
((-26, -28, -4, -14, -1, 0, 8, -4), 1, 0.8538101491080373)
((-9, -5, -3, 2, 0, -1, 0, 4), 1, 0.881188530922912)
((13, -9, 2, 4, 5, 2, 6, 5), 1, 0.9022373332861984)
((-22, 44, -7, 9, -2, -3, -10, -1), 1, 0.9246363242938735)
((-61, -49, -4, 14, 3, -6, 1, -10), 1, 0.947326107619386)
((-1, -5, 1, -12, -8, -2, -1, 2), 1, 0.9674118742477175)
((-28, -19, 4, 5, 3, 6, 3, -2), 1, 0.9899625334054802)
((14, 7, -6, 1, -5, -1, 1, 3), 1, 1.0134579825057062)
((23, 10, 2, -2, -3, 0, -1, 2), 1, 1.0350250794119609)
((-18, 24, 11, -7, -3, 1, 6, 7), 1, 1.0542538639741958)
((-14, -17, -1, 0, 0, -2, -10, -8), 1, 1.0794969178865215)
((0, 7, 0, -3, 0, 0, -1, 0), 1, 1.1003016827752305)
((16, 15, 4, 3, 3, 2, 6, 7), 1, 1.1226128659065393)
((-16, -5, -4, -7, -2, -1, 1, -4), 1, 1.1454685719075235)
((0, -13, -9, 12, -2, -4, -12, -6), 1, 1.1657276735645266)
((-6, 12, 4, 4, 2, -2, 1, 2), 1, 1.1854673403165303)
((18, -7, -2, 1, -1, -1, 1, -2), 1, 1.20963674337692)
((-4, -4, 1, 1, -1, -2, 1, -4), 1, 1.2338152693335553)
((14, -63, -9, -8, -1, -2, 3, 2), 1, 1.2592755622127356)
((30, -16, 0, -12, -5, -1, -9, -9), 1, 1.2808911245052967)
((1, 7, 1, 1, 1, -2, -2, 4), 1, 1.300707765694375)
((-1, -3, 0, -9, -2, -1, 0, -2), 1, 1.325631518238095)
((-47, -16, 1, -2, 0, -4, 1, 0), 1, 1.3508819845036204)
((-13, -4, 2, 2, 1, 2, 0, 4), 1, 1.3739954123235503)
((-16, -18, -5, 0, -2, 1, 2, 0), 1, 1.399587987198296)
((-37, -9, -5, -5, -2, -3, -1, -2), 1, 1.4184524260917113)
((5, 1, 0, 13, -5, 0, 5, -2), 1, 1.4376772193868388)
((-15, 13, -4, -3, 0, -3, 4, -4), 1, 1.4600927456439596)
((-11, 6, 1, -4, -9, -6, -5, -4), 1, 1.4834154298965292)
((10, 6, 2, 6, 4, 2, -3, 3), 1, 1.505390776409787)
((-41, -2, 2, -19, -2, 3, 3, 4), 1, 1.5253807526275367)
((0, 0, -6, 4, 4, -2, -2, -1), 1, 1.5477284273438288)
((7, 4, 5, 2, -6, -2, -3, -3), 1, 1.5686911323737946)
((11, -4, 1, 3, -2, -1, 7, -1), 1, 1.591512627513857)
((11, 11, 5, -3, 2, 2, 6, 3), 1, 1.6126600711928016)
((-39, -9, 0, 1, 0, -1, -1, 6), 1, 1.6332407549424717)
((13, 1, 1, 22, 5, -2, -11, 1), 1, 1.6604794424085814)
((7, -90, -13, -4, -7, -4, -3, -4), 1, 1.697055984363356)
((6, 6, 0, 4, -2, -1, -1, 1), 1, 1.7206375307969022)
((14, 31, 2, -1, 5, 3, -2, 2), 1, 1.7452174641883558)
((29, 17, 3, 2, -4, 4, 11, 12), 1, 1.7673353559554552)
((0, -4, 0, -1, -4, 0, 2, 4), 1, 1.7930499495674892)
((-6, 4, 0, 1, 0, -2, 5, -1), 1, 1.8171452290958812)
((29, 1, -1, 3, 0, 0, 1, -1), 1, 1.840451378099005)
((-14, -21, -2, -10, -7, -4, -2, -6), 1, 1.8642838041793128)
((-59, -8, -3, -6, -8, -4, -4, -1), 1, 1.887310564484907)
((23, 3, -1, 0, -2, -3, 6, 2), 1, 1.9151667579906593)
((7, -6, -5, -2, -6, -2, 0, 1), 1, 1.9388822969628168)
((-5, 3, 3, -13, 1, 0, 0, 4), 1, 1.961438087749718)
((-28, -19, 1, -12, 1, -2, -5, -11), 1, 1.9845748929912779)
((-19, 5, 0, 3, 1, 0, -2, -3), 1, 2.010494751768844)
((-11, -25, -6, -1, 0, -5, -4, -6), 1, 2.0306996862293873)
((10, 18, -3, -7, -3, -1, 1, -3), 1, 2.051183439206445)
((71, 19, 3, -5, 2, 2, 4, 8), 1, 2.0765091693659987)
((3, -7, 0, -2, -2, -1, 0, 0), 1, 2.096954150034011)
((-5, -8, -1, -3, -1, 0, 2, 2), 1, 2.121600794604263)
((5, -5, 1, -2, 0, 1, 7, 7), 1, 2.1462959045608208)
((-77, -30, -10, 0, -1, -2, -7, -10), 1, 2.1685335343411474)
((-22, 7, 3, -3, -2, -2, -4, -2), 1, 2.1983289134801627)
((-4, -11, 5, 4, 3, 0, 4, 5), 1, 2.2316651167246064)
((1, 8, -2, 15, 1, -1, 12, 8), 1, 2.2582731839877206)
((8, -1, -1, -2, -4, 0, -2, 1), 1, 2.2862063519305473)
((0, 6, 1, -2, -6, 1, 1, 2), 1, 2.3159270373565497)
((-8, -3, 0, 3, -4, -1, -2, 0), 1, 2.3411661000017676)
((-9, -3, -5, -8, -3, -1, -1, 4), 1, 2.3723344750257866)
((-15, -8, -4, 2, -1, -5, -7, 0), 1, 2.3972679206467675)
((20, -8, -5, 15, 6, 1, -1, -2), 1, 2.4311942612421165)
((-36, -10, 0, 13, 2, -2, -7, -7), 1, 2.460369853617428)
((-36, -29, -3, 13, 3, -2, -6, -8), 1, 2.489252372950841)
((49, 16, 9, 2, 4, 6, -1, 17), 1, 2.5183401574497855)
((22, 5, -8, -6, -5, -4, -3, -4), 1, 2.5458285842006263)
((-19, -9, 1, 20, 1, 1, 1, -5), 1, 2.5713755445941424)
((21, 62, 8, 8, 8, 4, -1, 4), 1, 2.6004336796802883)
((13, 10, 2, 38, 2, 2, 3, -4), 1, 2.6292842688768405)
((15, -8, 0, 9, 7, 2, -9, -1), 1, 2.654791316599281)
((-37, -15, -3, -4, 3, 0, -6, -6), 1, 2.6853113958088275)
((0, 10, 7, -1, 0, 5, 9, 10), 1, 2.7175209213669063)
((-1, 24, 6, -1, 0, 2, -2, -2), 1, 2.743868986087013)
((-8, -14, -5, -17, -13, -3, -4, -2), 1, 2.768088565076755)
((-37, 15, 4, -12, -3, -2, 0, -3), 1, 2.7959578727458605)
((12, -5, -6, 2, -7, -1, 17, 0), 1, 2.8251323247591413)
((10, 6, 6, 4, 13, 4, 5, 2), 1, 2.8504916955986017)
((4, 2, 1, 5, 7, 28, 28, 5), 1, 2.8796119804154223)
((-1, -4, -20, 0, -5, 6, 0, -3), 1, 2.908712879077721)
((-1, -5, 2, 6, -2, -5, -13, -3), 1, 2.9387066812100837)
((2, 1, -10, -7, -7, -6, -5, 0), 1, 2.9600228984695773)
((-2, -2, -5, -1, -5, -5, 0, -1), 1, 2.9905788990830917)
((2, 0, 1, 2, 0, 3, 5, -2), 1, 3.016262702920296)
((2, 0, 7, 6, -2, -5, -3, 1), 1, 3.0470501970260497)
((2, 8, 13, 13, -1, -3, -18, -3), 1, 3.074426298116863)
((-42, 5, 43, 11, -2, -8, -5, 5), 1, 3.101330859507968)
((-22, -23, -17, -67, -25, -26, 0, -7), 1, 3.1324382251633427)
((-8, 25, 31, 65, 18, 21, -4, -63), 1, 3.153241849690021)
((-10, -25, -63, 4, -10, 3, -1, -69), 1, 3.1739131922211343)
((-51, 5, 85, 1, -21, -27, 19, 31), 1, 3.1947179571098436)
((20, -122, -120, -107, -42, -68, 1, 123), 1, 3.2148607418397117)
((11, 8, -35, -4, -3, -22, 2, 36), 2, 3.3002145591160827)
((12, 52, 4, -86, -19, -16, 1, 23), 2, 3.3250026085781452)
((56, -2, -18, 25, 4, 0, -5, 18), 2, 3.3488219204950997)
((1, -6, -56, -9, 3, 3, -2, -65), 2, 3.3700708563947797)
((43, 26, 45, 0, 3, -6, 21, 85), 2, 3.39337871594095)
((-49, 30, -16, 1, 6, 5, 0, -2), 2, 3.414428658666267)
((-16, 7, -54, 14, 6, 4, -9, -18), 2, 3.4395217549715507)
((16, -16, 38, -5, -1, -1, -3, 13), 2, 3.461494820760747)
((-4, 12, 5, 1, 3, 2, -7, -19), 2, 3.481486507521543)
((6, -5, 8, 8, -2, 1, 2, 11), 2, 3.50235057123585)
((1, 85, 12, -17, -3, 2, -2, -3), 2, 3.524128635117791)
((-27, -19, -19, -4, -1, -6, -4, 29), 2, 3.5475197410922044)
((9, -1, 22, 10, 7, 1, 1, 16), 2, 3.5678176150582526)
((9, 15, 47, 12, 1, 0, -2, -5), 2, 3.5887027754701286)
((47, 5, 26, 6, 4, 3, 2, 24), 2, 3.609892982725226)
((-12, -32, -94, -53, -14, -6, -7, 13), 2, 3.631075777627123)
((9, 10, 28, 17, 10, 3, 1, -19), 2, 3.653856219734079)
((39, 15, 32, -1, -5, 2, 1, 35), 2, 3.6811855659816324)
((32, -23, 5, 26, 8, 3, 2, 52), 2, 3.7103731321582663)
((-18, -13, 17, 6, -2, -6, -2, 0), 2, 3.7374208089842282)
((4, -8, 5, -7, -4, -1, -2, -18), 2, 3.759113345713864)
((33, -6, -15, -2, -1, -2, -4, 7), 2, 3.7790018297108783)
((2, 11, 60, -14, -2, -2, 1, 16), 2, 3.800153834837946)
((-21, 12, -2, -9, -4, 0, -1, 22), 2, 3.821627992238696)
((-7, 30, 11, 9, -3, -1, 0, 2), 2, 3.8482463227600867)
((5, -36, -63, -59, -13, -12, -9, 30), 2, 3.8681969564877763)
((12, -11, 5, -3, -3, -6, 1, 79), 2, 3.889217249800294)
((-4, -15, -44, 8, 2, 0, 0, -19), 2, 3.9118847960662073)
((-45, 30, 7, 6, 1, 1, -3, -53), 2, 3.932092581431827)
((3, -26, -7, -9, -1, -2, -4, 4), 2, 3.9534042372431974)
((-8, 74, 11, 6, -1, 3, -1, -6), 2, 3.9731935097435382)
((-12, -36, -27, -28, -8, -3, -3, -11), 2, 3.9951871020492877)
((2, -18, -6, 20, 1, 0, 2, 13), 2, 4.0163396773573705)
((3, -3, -33, -2, 0, 2, 3, 16), 2, 4.0401709630756475)
((-26, -10, -94, -40, -9, -5, -5, -11), 2, 4.060382739708375)
((-20, 17, 0, -13, -10, -3, 0, 29), 2, 4.082784011440112)
((-20, 8, 31, -20, -1, 1, -2, -34), 2, 4.107329733970643)
((-7, -9, 72, 23, 3, 2, 5, -59), 2, 4.131255099556456)
((-5, -19, -25, -34, -8, -4, -4, -11), 2, 4.158157950404515)
((5, 49, 17, 5, 1, 0, 2, -23), 2, 4.1783588935979505)
((-31, -17, 15, 3, -2, -3, -8, -95), 2, 4.197676056217567)
((13, 9, 0, -12, -1, -3, 1, -21), 2, 4.222331253503049)
((-22, 5, 38, 8, -3, 0, 1, -23), 2, 4.2441361158927124)
((-6, 9, 23, 17, -2, -3, 0, -5), 2, 4.264651228825615)
((0, -1, -3, 16, 7, 3, 0, -23), 2, 4.284590458932997)
((-3, 1, 4, 15, 2, 5, 2, 1), 2, 4.309364253869676)
((-21, -54, -33, -15, -5, 0, 2, 31), 2, 4.329549231994681)
((10, 1, -49, -12, 4, 2, 0, -4), 2, 4.351577605342368)
((38, 18, -3, 20, 0, 0, 2, 14), 2, 4.372109823705732)
((6, 9, -1, 4, 1, -3, -1, -11), 2, 4.3936660871726945)
((-9, -5, -49, -11, 0, -4, -1, -9), 2, 4.413554000988694)
((1, 11, 35, 8, 0, -2, 0, 18), 2, 4.433228667104946)
((7, 10, -2, 2, 3, 3, 2, -3), 2, 4.455069450898577)
((-9, 6, 23, 1, 0, -2, -3, -5), 2, 4.4775784868422175)
((5, -1, 11, 11, 2, -3, -1, -8), 2, 4.496579198998306)
((-52, -10, -2, -9, -3, -7, -8, -55), 2, 4.52201440391281)
((-20, -6, -23, -19, 1, 2, -3, -10), 2, 4.542790089569736)
((9, -8, 5, 6, 3, 5, 3, 3), 2, 4.565145746820243)
((-5, 7, -12, -9, 1, 0, 1, 12), 2, 4.589407519205122)
((0, 0, 30, 12, 9, 2, 3, -7), 2, 4.610062896667805)
((12, 13, -2, 0, -3, -4, -3, 33), 2, 4.6313728419361295)
((-5, -11, 44, 0, -1, 1, 1, -7), 2, 4.661938535626906)
((-2, 9, 13, 20, 4, 2, 0, -7), 2, 4.6896413504395245)
((-1, 12, 50, 15, 6, 1, 2, -3), 2, 4.712202843036579)
((-4, -11, 3, 1, -3, -2, -1, -13), 2, 4.732818307828186)
((-7, -12, -46, -17, -2, -1, -2, 3), 2, 4.7544618089905)
((-13, 4, 11, 16, 0, -3, -1, -7), 2, 4.776334522920992)
((-2, -3, -11, -1, 0, 0, 0, -2), 2, 4.796347876560372)
((13, 43, 39, 11, 0, 2, 2, 8), 2, 4.817054570314438)
((-4, -11, 2, -4, -2, -1, 0, -7), 2, 4.8368894572960075)
((2, -1, -23, -6, -2, -3, -3, 3), 2, 4.852803209434899)
((9, 0, -7, -14, -1, 0, 0, -5), 2, 4.875689705210713)
((1, -5, -15, 10, 3, 2, 1, 0), 2, 4.895778892925137)
((-8, -8, -46, -4, -4, -2, -2, 3), 2, 4.917856301840145)
((9, 14, -7, -4, 0, -2, -2, 7), 2, 4.940234766331267)
((13, 10, 11, -2, 0, -1, 0, 11), 2, 4.959583288906729)
((24, 1, 26, 19, 3, 1, 1, -5), 2, 4.985901134033021)
((0, -11, -35, -2, -1, 2, -1, -3), 2, 5.007851392581603)
((-7, -22, -10, -2, 1, 2, -1, -7), 2, 5.027435970097427)
((-5, -5, -18, -6, -1, -5, -3, 2), 2, 5.050014568124943)
((-5, -5, 5, 5, -5, 1, 0, -4), 2, 5.071385522761911)
((-12, -3, -21, -7, -3, -3, -4, -6), 2, 5.0925369577079636)
((-2, -2, -2, -5, -1, 0, -1, 0), 2, 5.112086184000835)
((0, -1, -57, -7, -3, -3, -3, 0), 2, 5.132396031768206)
((-3, -6, 5, -10, 0, -1, -1, 0), 2, 5.153076497195564)
((-2, 0, 1, -1, -2, -2, 2, -5), 2, 5.175800491381999)
((-3, 7, 23, 5, 4, 2, 1, -1), 2, 5.196866399175747)
((10, -2, -7, -7, -4, -2, -2, 8), 2, 5.217099272506043)
((12, 85, 20, -1, 5, 2, 1, 6), 2, 5.237715307478665)
((-4, -23, 81, 1, 5, 1, 0, -6), 2, 5.258226999325476)
((-4, -18, -40, 2, 1, -1, -2, 0), 2, 5.279735937768163)
((-3, -2, -29, 16, -4, -4, -3, -2), 2, 5.304821621720247)
((-5, -3, 7, -6, -1, -2, -2, 1), 2, 5.326616791032649)
((-1, 1, -6, -7, -2, 0, 0, -3), 2, 5.349250696618656)
((-1, -17, -24, -34, -8, -2, -3, -4), 2, 5.37342808221326)
((0, 0, -7, 10, 1, -2, -2, -3), 2, 5.394978073689054)
((3, -4, 13, 3, -2, 0, -1, 3), 2, 5.419531208572786)
((-4, -6, -15, -17, 1, 1, 0, -6), 2, 5.439915750053169)
((2, 1, 17, 14, 0, -3, 0, 1), 2, 5.46013208813402)
((5, 10, -21, 11, -1, -1, 1, -5), 2, 5.482778537702364)
((3, 4, 21, 5, 3, 2, 0, 1), 2, 5.505439811977109)
((-5, -6, -12, 0, -3, -3, 1, -2), 2, 5.526563878234423)
((-4, 1, 12, -4, -1, -2, 0, -10), 2, 5.547384038010547)
((2, -1, -1, -2, -5, -1, -1, 4), 2, 5.567717833380564)
((-13, -9, -5, -7, 3, -1, -4, -47), 2, 5.588515185916073)
((-2, -5, 6, 5, -1, -1, 0, 5), 2, 5.610573778857574)
((-9, -2, -10, -9, -1, -2, -1, 0), 2, 5.6304685348457575)
((-1, -11, -44, -17, -4, -1, 0, 7), 2, 5.650409475496186)
((3, 12, 21, 4, 0, 0, 1, -8), 2, 5.675286473196646)
((4, 8, 48, 11, 3, 1, 0, 3), 2, 5.705742692132471)
((-5, -5, -10, 3, -1, -1, 0, 4), 2, 5.725346085621802)
((7, 4, 12, 26, 8, 2, 0, 9), 2, 5.74690919126095)
((3, 6, 8, 5, -2, -4, -2, 3), 2, 5.770963417756235)
((3, 2, 19, 6, 3, 0, -1, -2), 2, 5.794912730944693)
((12, -3, 10, 4, -1, -2, -3, 2), 2, 5.81939744410658)
((-4, -5, -42, -13, -5, -3, -4, -2), 2, 5.841869418284222)
((-2, -5, -16, 0, -2, -1, 1, -1), 2, 5.862884009786587)
((-3, -7, 4, 2, -5, -2, -3, -3), 2, 5.885101683231375)
((1, 7, 39, 12, 3, 1, 0, -6), 2, 5.905873947802209)
((-6, -5, -2, -5, -4, 0, -1, -2), 2, 5.927279683481115)
((0, -2, -16, -1, 6, -1, -1, -1), 2, 5.947034745120534)
((-3, -4, -3, -19, -3, 1, -2, -1), 2, 5.969052285028928)
((0, 2, 12, 4, 5, 1, 1, 0), 2, 5.991758033422871)
((0, -3, -29, -7, -6, -2, -2, -2), 2, 6.012048495035719)
((-4, 3, -20, -1, -2, -2, -1, -2), 2, 6.03155096648533)
((-1, -1, 8, 2, 0, 0, 0, 0), 2, 6.051723400627997)
((-1, 1, -12, -4, -1, 0, 0, -1), 2, 6.071257232033454)
((0, -3, 5, 1, 1, 0, -1, 2), 2, 6.097873852011798)
((0, -3, -13, -8, -3, 0, -1, -1), 2, 6.122610015001462)
((0, 3, 2, -1, -11, -3, -2, -1), 2, 6.141768097117792)
((-47, -12, -36, -26, -4, -3, -3, -3), 2, 6.168295198676724)
((-4, -1, -4, 22, 7, 3, 0, -3), 2, 6.1902654135608435)
((32, 2, 8, 2, -1, -3, -2, -10), 2, 6.214995874740354)
((4, -3, 1, -10, 1, -3, 0, 9), 2, 6.236879992291152)
((-42, -12, -43, -14, 0, -2, -8, -22), 2, 6.256994838151268)
((-31, -47, -5, -26, 25, 10, 4, -42), 2, 6.27697968273988)
((-24, -77, 64, 66, 28, 13, 15, -17), 2, 6.299983065623843)
((1, 56, -4, 5, 1, 1, -61, -2), 2, 6.320271816693646)
((-44, -56, -21, -61, -18, -56, -57, -62), 2, 6.341744833732365)
((29, 45, 35, 30, 3, 14, 33, 22), 2, 6.362033584802167)
((-14, -4, 45, 14, 4, 2, -10, -13), 3, 6.404461324336637)
((-39, 5, -10, -3, -3, -6, 8, -26), 3, 6.424422791503619)
((37, 9, 17, 55, -7, 6, -14, 11), 3, 6.445011457787504)
((5, -7, 73, 1, 5, 3, -37, -26), 3, 6.465962759197162)
((-9, 11, 39, 25, 3, -2, -23, -28), 3, 6.4852474214989035)
((27, -8, 5, -22, -11, -3, 4, 40), 3, 6.504715111906577)
((2, -6, -100, -24, -17, -6, 12, 23), 3, 6.525567201819562)
((23, 51, 49, -19, -11, -2, 12, 4), 3, 6.547327019909011)
((1, -2, -26, 0, 1, 1, -4, -6), 3, 6.568721922148624)
((5, 7, 32, 39, 18, 3, -3, 3), 3, 6.592722551628466)
((3, -16, 41, -10, -16, -8, -12, 13), 3, 6.618808333081503)
((-1, -11, -29, -22, -10, -6, -6, 7), 3, 6.638783484592854)
((-9, -7, -52, 1, 6, 0, -27, -53), 3, 6.659578556404302)
((12, -2, -3, -45, -8, -1, 9, 1), 3, 6.690359778518887)
((-7, -45, -4, 24, 3, 3, 3, 0), 3, 6.71413860758375)
((-10, -8, -21, -45, -9, -5, 6, -7), 3, 6.7377024784058195)
((4, 24, 48, 34, 14, 2, -10, -7), 3, 6.757586971135726)
((0, 5, 6, 10, 7, 4, 11, -9), 3, 6.777845502611714)
((-6, -19, -2, 12, -4, -7, -3, -15), 3, 6.798522546952981)
((7, 3, 11, -4, -5, -2, -2, 10), 3, 6.820818335196875)
((9, 34, 46, 17, 3, -2, 5, -14), 3, 6.8421955618250125)
((2, -9, 17, 26, -6, 2, -4, -25), 3, 6.864501613327183)
((2, -1, -17, -3, 0, -1, 3, 26), 3, 6.88483654905923)
((12, 27, 19, 38, 11, 6, 2, 30), 3, 6.906478339678498)
((-12, -4, -41, -27, -8, -3, 5, -6), 3, 6.928966849105586)
((-8, 11, -12, -1, -4, -4, -6, -4), 3, 6.9494295053850745)
((-2, -9, 5, -6, 0, 2, 6, 10), 3, 6.970091725019942)
((-20, 0, -13, -4, -2, -2, -2, 10), 3, 6.9905663551007535)
((-11, 42, -55, -34, -3, 1, -5, -22), 3, 7.01497865527369)
((-3, -42, -21, -49, -16, -8, 0, 11), 3, 7.037865721230519)
((10, 5, -35, -31, -3, -4, 4, -5), 3, 7.056959943073127)
((4, 12, 12, 16, -2, -2, 11, -1), 3, 7.078946693206692)
((-13, -14, -13, 8, -3, -4, 4, -8), 3, 7.101810381741892)
((-4, 11, -64, -21, 4, -2, -6, -19), 3, 7.125105697305724)
((20, 8, 32, 34, 7, 2, -4, -1), 3, 7.146032480931721)
((3, 11, 14, -9, -1, -5, 0, -1), 3, 7.170565659479915)
((12, -12, 17, 13, -3, 0, -2, -6), 3, 7.189844049790487)
((1, -37, -53, -2, 1, 0, 5, 28), 3, 7.210917369937434)
((-4, -13, -39, -6, -3, 1, -3, 18), 3, 7.23365960991636)
((7, -62, 15, -13, -13, -9, 0, 11), 3, 7.255844212862257)
((-7, -30, -18, 7, 1, 0, -1, -4), 3, 7.276706566033519)
((-7, 5, -47, -20, -2, -3, -2, -10), 3, 7.298592964308379)
((-4, 13, 3, 3, 12, 3, 12, -16), 3, 7.319148560093373)
((12, 22, 27, 11, -7, -3, -18, -2), 3, 7.343956565890974)
((-1, 0, -29, -31, -12, -5, -23, -28), 3, 7.365915947335801)
((6, 2, 10, 17, 7, -2, -18, -13), 3, 7.385738860516048)
((4, 19, 38, 21, 11, 5, -2, -1), 3, 7.405150673184216)
((2, 8, 5, 8, -5, 1, -4, -22), 3, 7.431759310628345)
((-2, 8, 9, -26, -7, -5, -8, -27), 3, 7.451468187605519)
((-3, -18, -20, -31, -15, -7, -7, 32), 3, 7.4706199977306795)
((6, -3, 17, 5, 1, -1, -9, -7), 3, 7.489581367396707)
((4, -7, -6, 4, 14, 0, 12, -8), 3, 7.511154166113116)
((-6, -24, 8, 3, -2, 1, -1, -19), 3, 7.536397790206457)
((-3, 7, -9, 19, 0, 0, -7, -18), 3, 7.556021710212341)
((3, 11, 30, 20, 2, 1, 7, 31), 3, 7.575768789317545)
((-3, 7, 48, 19, 8, 6, 2, -1), 3, 7.5980480423119925)
((3, -8, 20, -2, -3, -2, -3, 4), 3, 7.617393713982378)
((6, -2, 2, 2, -7, -4, -1, 24), 3, 7.639232787232963)
((-4, 4, -23, 3, 21, 15, 13, 18), 3, 7.6586531526163615)
((7, -1, 28, 2, 5, 3, 1, 4), 3, 7.686708909477492)
((-13, 24, 32, 0, 3, 4, 16, -11), 3, 7.709434044025957)
((-5, 3, 13, -1, -5, -5, 17, 40), 3, 7.731640884031454)
((-11, -9, -24, -8, -5, -4, -3, -6), 3, 7.753138418853833)
((-8, -67, -17, -36, -16, -5, 3, 32), 3, 7.773112430003153)
((-7, -24, 13, 2, -4, -6, -34, -24), 3, 7.799279177160373)
((4, 24, 50, -5, -3, 0, -1, 5), 3, 7.819907756115334)
((-13, -13, 13, 7, 0, 0, -8, -4), 3, 7.843041140270802)
((-1, -17, 8, 14, -7, -7, 8, 27), 3, 7.865643115719948)
((-13, -10, 30, -39, 4, -3, -20, -66), 3, 7.88612743887802)
((-5, 3, 18, 24, 3, 0, -15, -15), 3, 7.9067896585128885)
((6, 12, -2, 4, -4, 0, 2, 0), 3, 7.9305359872598755)
((-6, -1, -15, -12, 4, 3, 8, -5), 3, 7.954278894920771)
((-8, 10, 20, 20, 3, 0, -9, -19), 3, 7.973389081831809)
((-24, -18, -55, 4, -5, -6, 0, -51), 3, 7.9932102844690105)
((-21, -22, -46, -21, -8, -6, 14, -35), 3, 8.014563563494503)
((9, -56, 12, 11, 10, -3, -15, -1), 3, 8.036484172630285)
((3, -10, 12, -5, -6, -4, 1, 15), 3, 8.05836258837093)
((-3, -10, 2, 16, -1, -5, -3, -13), 3, 8.078291555220035)
((11, -46, 7, -39, -15, -9, -3, -9), 3, 8.100354139428644)
((-3, -4, -50, 24, 13, 9, 3, 8), 3, 8.122017596926495)
((18, 18, 19, 34, 10, 3, -3, -10), 3, 8.143616053788596)
((-1, 3, 3, 13, 15, 2, -1, -5), 3, 8.166187239462912)
((-9, 8, 14, -10, -8, -1, -1, -11), 3, 8.186270155186167)
((2, -3, -5, -24, -1, 9, -8, -11), 3, 8.207223167138872)
((-2, 1, -2, 19, 5, 0, 6, 22), 3, 8.231725555912236)
((-6, 0, 10, 14, -6, -3, -14, 2), 3, 8.254498585665992)
((-8, 3, 27, 18, 2, -1, -2, -5), 3, 8.274660756550382)
((-6, -2, -15, 1, 2, -4, 10, -23), 3, 8.300643335239638)
((-6, 3, 5, -17, -7, -7, 1, -5), 3, 8.321685865611755)
((-1, -5, 18, 0, -4, 0, -5, -5), 3, 8.342126284831645)
((-6, 2, 6, 9, -2, 1, -6, -6), 3, 8.36749249784329)
((16, 4, -7, -9, -8, -9, -6, 1), 3, 8.38787760950469)
((0, -2, 47, 37, 7, 2, -30, 19), 3, 8.408174343108707)
((0, -19, -12, -20, -3, -2, -29, -37), 3, 8.428609630699459)
((-5, -4, -7, 8, 7, 2, -7, -9), 3, 8.448620703614777)
((18, 2, 13, -4, 1, 0, -23, -21), 3, 8.469989947708699)
((19, 89, 31, 19, 7, 9, 19, 28), 3, 8.491429894248528)
((-15, -31, 15, 5, -4, -6, 4, -4), 3, 8.511586363322763)
((3, 10, -14, -6, 8, 2, 14, 14), 3, 8.530847648202874)
((-8, -22, -6, -10, -2, -4, 0, -8), 3, 8.552963259245912)
((-5, -6, 29, 4, -4, 1, -10, -1), 3, 8.574143203242734)
((-8, -3, 3, 2, 4, -1, 9, -7), 3, 8.596162453694173)
((0, -10, -4, -9, -4, -2, -1, 0), 3, 8.616619978344525)
((-1, -6, 34, 1, 5, 2, 10, 3), 3, 8.63644574242985)
((0, 0, -39, -10, -4, 1, 3, 20), 3, 8.663636534690669)
((-14, -9, -11, -5, 0, -1, 5, -3), 3, 8.69581241956884)
((15, -1, 23, -18, 5, 3, -3, -3), 3, 8.716880037905634)
((-5, 7, 53, 19, 2, 2, -2, -11), 3, 8.737411686087983)
((-1, -14, 29, 28, 7, 2, 11, -12), 3, 8.754668214518063)
((0, 7, -9, -2, -5, 1, 6, 27), 3, 8.773935201208328)
((1, -17, -49, 1, 2, 0, 7, 13), 3, 8.795002249364106)
((-3, 6, -28, 0, -2, -1, 0, 1), 3, 8.819017703550346)
((-1, -5, 8, 5, -2, 0, 0, 2), 3, 8.83784907194487)
((2, 68, 34, 37, 11, 5, 8, 18), 3, 8.859620863835643)
((0, -14, 27, 37, 12, 6, 10, 2), 3, 8.879942685404336)
((-14, -35, -49, -54, -15, -5, -5, 3), 3, 8.898604710037295)
((-1, -4, -10, -12, -3, -3, 1, 0), 3, 8.91967460909815)
((3, 21, 14, 12, 6, 1, -21, -35), 3, 8.944013355920104)
((-3, 2, 16, 36, 4, 3, -5, -13), 3, 8.96511746584188)
((-4, 1, 0, 4, 6, 1, 1, -14), 3, 8.98540279582559)
((-6, 18, -9, 4, 5, 0, 8, -4), 3, 9.0049868031604)
((2, -8, 37, 10, 1, -1, -1, 4), 3, 9.02223477887525)
((-8, 7, 25, 3, 4, -2, -4, -10), 3, 9.04506026528242)
((-4, -9, -1, -20, -5, -2, -6, -10), 3, 9.067748908245902)
((-14, -24, 4, -52, -26, -11, -12, -20), 3, 9.087834104693217)
((2, 6, 3, 28, 5, 0, -4, -10), 3, 9.111882629378348)
((-3, -2, 6, -2, -4, 1, -1, -7), 3, 9.134419604191743)
((0, -2, -5, 4, -3, 0, 1, 4), 3, 9.15449966900992)
((-1, 5, -27, -3, -4, -5, -2, -2), 3, 9.179136620502911)
((-1, 3, 10, 5, 1, -2, 2, 0), 3, 9.202107503069)
((-2, -9, 45, 2, 3, 3, 1, -1), 3, 9.222030197926935)
((2, 1, -2, 1, 0, -1, -1, -1), 3, 9.241708855310295)
((1, 1, -27, -1, 3, 4, 1, -1), 3, 9.26158878659208)
((1, 2, 39, 18, 0, -1, 1, 2), 3, 9.283406763145095)
((0, -7, -23, 11, -2, 0, 2, 0), 3, 9.304664251760006)
((-1, -2, -13, -2, 2, -1, -2, -1), 3, 9.325284277999737)
((-14, 3, 22, 2, 0, 0, -1, -5), 3, 9.3468257167603)
((3, 2, 13, 24, -6, 0, 0, 2), 3, 9.368782817481065)
((-2, -7, -37, -9, 1, -4, -2, -3), 3, 9.391440100488703)
((2, -78, -88, -32, -5, -4, -4, -4), 3, 9.413657203752475)
((2, 0, 55, 5, 2, 0, -1, -1), 3, 9.43452639909592)
((6, -13, -42, -12, -6, -4, -2, -1), 3, 9.455724018704219)
((-3, -23, 20, 12, 1, -2, -2, -1), 3, 9.482417613119637)
((2, 6, 72, 29, 5, 0, 0, -1), 3, 9.502478861964308)
((47, -18, -6, 10, 6, 6, 8, 1), 3, 9.676451923192056)
((-76, -19, -5, 4, 0, 2, -2, -6), 1, 9.72864230207164)
((38, -8, -7, 24, 14, 41, 13, 0), 1, 9.74889912300458)
((17, -54, 11, -8, -11, -14, 8, 12), 1, 9.789284474142006)
((-29, 15, -5, -16, -2, -3, -4, -2), 1, 9.811056836213792)
((26, 16, -7, 10, 6, -6, 3, 5), 1, 9.830736633959184)
((-39, 0, 1, -15, -3, -3, 1, -11), 1, 9.854083265814397)
((-41, 56, 9, 8, -3, -22, -2, 6), 1, 9.878223589643005)
((40, -21, 2, 1, -1, 1, 1, -4), 1, 9.898941116836362)
((-4, 16, 1, 17, -3, -4, -3, -4), 1, 9.918354069866561)
((-20, -19, -16, -5, -2, 1, 3, -6), 1, 9.946145832917576)
((8, -28, -9, -3, 2, 20, 0, 4), 1, 9.971521168825467)
((-9, -34, -3, 12, -11, 0, 1, -2), 1, 9.995646667947673)
((7, -13, -5, -3, 2, -2, 1, 1), 1, 10.014864048889601)
((10, 16, -8, 2, 0, -2, -2, -1), 1, 10.037256197725092)
((15, -13, -4, 3, 5, 1, -17, 1), 1, 10.056626387179138)
((4, 5, -7, -3, 1, 14, 1, -1), 1, 10.077189965498347)
((5, 2, -5, -4, -6, 0, -1, -7), 1, 10.10106971660293)
((-1, 4, 0, 0, 0, -2, 3, -2), 1, 10.12358502453774)
((12, -6, -4, 6, 4, -1, -2, -4), 1, 10.145070585558797)
((-1, 5, 0, 5, 0, -7, 0, 1), 1, 10.165928377281936)
((10, 78, 12, 6, 1, 2, 4, 8), 1, 10.188537194903265)
((-33, -26, -5, 0, -6, 1, 4, -3), 1, 10.21243405143831)
((13, -9, -5, -1, 3, -4, -6, 0), 1, 10.233213728362344)
((16, -1, -9, 3, -10, -5, -4, -3), 1, 10.254556744129559)
((13, -39, -6, 1, -1, 5, 2, -9), 1, 10.280087739454645)
((24, 14, 8, 2, -1, -5, -4, 4), 1, 10.301026496881965)
((0, -10, -5, -3, -3, -9, -4, -3), 1, 10.321123667130603)
((-9, -21, -6, -2, 7, 2, 0, -3), 1, 10.346147771533028)
((-15, -17, -2, -2, 0, -3, 0, 0), 1, 10.367658990699777)
((-7, -61, -6, -1, 0, 6, 2, 5), 1, 10.389337843085045)
((-1, 5, -2, -9, -1, 1, 0, 0), 1, 10.411343409192117)
((-14, -8, -7, 1, -6, -3, -3, -6), 1, 10.434406661082694)
((-2, -2, -4, -2, -3, 0, 0, -1), 1, 10.45476269351231)
((0, -2, -2, -5, 1, -3, -1, -3), 1, 10.47714514927054)
((32, 10, 0, -3, -5, -8, -8, 2), 1, 10.498004651536723)
((43, -2, 2, 0, 3, 2, -2, 1), 1, 10.518601300354824)
((-4, 2, -1, 1, -2, -6, 0, 0), 1, 10.540919895839332)
((2, -9, 1, 3, 1, -1, 0, 3), 1, 10.561539922079062)
((-25, -22, -6, -13, -11, -5, 0, -8), 1, 10.580173437661255)
((10, -6, 0, 1, 6, 3, 1, 4), 1, 10.606960541763193)
((7, 4, 2, 6, 3, -1, 2, 3), 1, 10.62758113818394)
((26, 0, 1, -5, -6, 0, 0, -3), 1, 10.647933749527462)
((-7, 5, -2, -10, -6, -3, -1, 4), 1, 10.679606164569066)
((3, -1, 2, 4, 2, -2, -3, 0), 1, 10.704415310728697)
((15, 2, -1, -1, 8, 4, -1, 0), 1, 10.729864770168586)
((-3, -1, 0, -2, -1, -1, -1, -4), 1, 10.750135845626911)
((3, -29, -6, -1, 2, -3, -3, 2), 1, 10.770481044617235)
((14, -3, 0, 24, 15, 3, 3, -3), 1, 10.792505426697813)
((-4, 12, 2, -5, -1, -1, -3, 0), 1, 10.816158815939296)
((-23, -4, -3, -3, 2, 1, -4, -3), 1, 10.837749860448197)
((-13, -4, -2, -2, -2, 0, -1, -4), 1, 10.860668286360871)
((-14, -3, 0, 3, 7, 2, 0, 2), 1, 10.88270977387191)
((4, -6, -2, -2, -2, 0, 0, 0), 1, 10.9024488704429)
((-14, 26, 5, 8, 2, 0, 0, 4), 1, 10.924423076594126)
((3, -6, 0, -6, -5, -3, -2, 0), 1, 10.943153522948931)
((4, -1, 0, 6, 3, 5, 3, 3), 1, 10.962423360544271)
((1, -4, -1, -4, 0, -1, -1, -2), 1, 10.982360880108608)
((-6, -20, -2, -5, -6, -5, -5, -1), 1, 11.001434005253648)
((46, 0, 0, -1, 1, 1, -1, 0), 1, 11.026466662371304)
((-5, 0, 2, 4, 4, 5, 1, 0), 1, 11.047358094774347)
((10, -5, -1, 2, -2, -1, -1, -3), 1, 11.067659389826488)
((-31, 4, 2, 5, 2, 1, -1, 0), 1, 11.090665623615529)
((17, 3, -2, -3, -5, -4, 1, 2), 1, 11.114178748327232)
((22, -2, -1, -1, -3, -4, -2, 0), 1, 11.135997295061262)
((-10, -6, -2, 21, 9, 8, 0, 0), 1, 11.159219627455128)
((14, -4, -5, -9, -10, -4, -3, -2), 1, 11.178957583664086)
((12, -2, 0, 2, -2, -1, 1, 0), 1, 11.200429460340775)
((-17, 6, -1, -4, -1, 0, 1, 4), 1, 11.222997224928998)
((13, -1, -1, -2, 0, -3, -3, -2), 1, 11.243271721473416)
((15, -13, -4, 2, 4, 2, -3, -1), 1, 11.264120960481325)
((1, -3, -2, -6, -4, -3, 0, -3), 1, 11.284279140098606)
((-9, 0, -3, -5, -4, -3, -3, -1), 1, 11.303865428157478)
((-1, -5, 1, -1, 6, 3, -2, -5), 1, 11.325466735924653)
((-18, 6, 1, -1, 3, 2, 1, -1), 1, 11.345305043992317)
((5, 15, 4, 2, 1, 1, 3, -1), 1, 11.364523565296274)
((7, 0, 1, 3, -7, -4, -2, 1), 1, 11.383996387333086)
((-30, -1, 1, 2, 3, -1, 1, 3), 1, 11.407079025378186)
((-46, -4, -4, 6, -2, -2, 1, -3), 1, 11.429353716924512)
((-3, -3, -3, -8, -6, -3, -2, -2), 1, 11.449237639473404)
((1, 5, 0, -2, -3, -4, -5, 4), 1, 11.469280642525582)
((10, 1, 3, 2, 1, 3, -1, -3), 1, 11.492540606866461)
((-1, -5, -3, -3, -1, -1, -3, -3), 1, 11.514125379384193)
((-20, -12, 1, 6, 14, 5, 1, 0), 1, 11.536315113959228)
((-20, -1, -2, -4, -3, -2, -2, -1), 1, 11.558387391245098)
((5, 2, 0, -5, 2, 1, -1, 2), 1, 11.578071180257597)
((-19, -32, -7, -3, -8, -10, -8, -3), 1, 11.600277450082077)
((-1, 11, 1, -1, -1, 3, 2, 2), 1, 11.619444084913637)
((13, -5, -2, -2, 2, 1, 1, -3), 1, 11.646021362401921)
((-17, 9, 1, 3, 1, -1, 3, 3), 1, 11.667267447396524)
((20, 11, 0, -5, -7, -2, 0, 1), 1, 11.694963990217975)
((19, 8, 3, 0, 1, 3, 2, 1), 1, 11.71595634466074)
((-2, 0, -1, -1, -4, -2, -4, 0), 1, 11.736836943624493)
((-22, -7, 3, -6, -6, -3, 0, 0), 1, 11.769309322630656)
((10, -6, -5, -9, 2, 3, 0, 0), 1, 11.79389894909937)
((-36, -6, -3, -1, 0, 1, 0, -3), 1, 11.814077085052192)
((1, -5, 1, -5, -4, -1, -1, 0), 1, 11.83602392251468)
((-10, -3, 1, 0, -6, -1, -1, -4), 1, 11.858122428127258)
((0, 2, -1, 4, 0, 1, 1, 0), 1, 11.879676981051174)
((-86, -2, 1, 3, 2, 0, -1, -3), 1, 11.900403631140778)
((-29, 35, 1, 4, -3, 0, 3, -3), 1, 11.915646280224584)
((-13, -20, -4, 8, -4, -2, -15, -5), 1, 11.941728640591528)
((19, -8, -4, -2, -5, 2, -3, 4), 1, 11.959301049304123)
((-10, -6, -2, 2, 3, -2, -3, -1), 1, 11.979528220824266)
((-10, -5, -4, 10, 6, 9, -4, -4), 1, 11.999782761033146)
((3, 4, -1, -9, -11, -15, -7, 2), 1, 12.021920609135782)
((24, -10, -2, 2, 6, 6, -1, -3), 1, 12.045925800063745)
((-23, -6, -2, -8, -1, -15, -4, -12), 1, 12.065173400599488)
((9, 1, 9, 24, 22, 24, 5, 3), 1, 12.085839041320448)
((-10, 1, -3, -16, -17, -4, 3, 0), 1, 12.107111924822773)
((7, 0, 0, -7, -1, 8, -6, 2), 1, 12.132654323768167)
((-3, -3, -6, 6, 6, 12, 1, -1), 1, 12.153121541495779)
((2, 1, 7, 11, 3, 14, 6, 1), 1, 12.174092799240976)
((-1, 1, 11, 9, 13, 4, 1, -1), 1, 12.195317217356994)
((-2, 0, 4, -3, -1, -7, -1, 1), 1, 12.216608346651812)
((4, -1, 2, -1, -1, -7, -3, 1), 1, 12.240207568696833)
((-3, -1, -5, -1, -1, -13, 8, -1), 1, 12.262785596543335)
((3, 2, 14, -4, -1, 5, 5, -3), 1, 12.281409419048265)
((-6, -4, -1, -5, -3, -20, -23, -9), 1, 12.307157653340205)
((-1, -1, 0, -6, 0, 0, 0, -1), 1, 12.3279914974607)
((3, 5, 8, 3, -1, 2, 4, 1), 1, 12.349211354128595)
((8, -1, 2, 4, 0, 2, -1, 1), 1, 12.370332569480833)
((3, 1, 1, 2, -1, -1, 0, 0), 1, 12.391558127958882)
((5, 10, -20, -8, -5, -7, -3, 14), 1, 12.411785869660042)
((-9, 94, 27, 8, 7, 10, 7, 9), 1, 12.430983864447446)
((8, 11, 36, 9, 2, 5, -5, 1), 1, 12.45216095753919)
((34, -2, -2, -2, 0, 4, 13, 65), 1, 12.469319985015643)
((29, -33, -18, 1, -3, -3, -31, 25), 1, 12.492418588129173)
((4, 15, -63, -4, -6, 6, -22, -16), 1, 12.51251974964492)
((22, 80, 127, 94, 23, 7, -8, -117), 1, 12.5332196012268)
((-29, -75, -97, -128, -33, -41, -29, 28), 1, 12.555571267210201)
((1, -7, 19, 8, 1, -4, -6, 3), 2, 12.65933280838668)
((-5, -28, 21, 37, 3, -10, -17, -1), 2, 12.684640862934756)
((13, -4, -58, 5, 3, -2, 7, 24), 2, 12.712379028970327)
((3, -28, 44, 11, 2, 2, 6, -21), 2, 12.732714534883389)
((-62, -26, 14, -27, -6, 0, -4, -59), 2, 12.756612531780464)
((35, -26, 6, 2, -2, -10, -16, 5), 2, 12.7780268201746)
((-44, 57, -19, 21, 1, 2, -7, -4), 2, 12.795935065505246)
((-1, 20, -65, -31, -1, -3, 9, -15), 2, 12.817757603506385)
((17, -14, 27, 6, -1, 2, -1, 18), 2, 12.839321279326548)
((19, 49, 54, -25, 3, 2, 1, 11), 2, 12.86339432179534)
((4, 47, 19, 12, -2, 2, 3, -8), 2, 12.882714335320035)
((6, -27, -11, -10, -3, -1, -3, -3), 2, 12.903834980491256)
((-17, -54, -44, -16, -7, -2, -1, 16), 2, 12.924879791587434)
((2, -18, -17, -9, -1, -4, -9, -11), 2, 12.946912726383244)
((2, 12, 21, 6, 5, 3, 2, 10), 2, 12.96764906955011)
((4, -8, 47, 16, 4, 2, -3, 20), 2, 12.988556467021585)
((-3, -12, 9, 6, -2, -3, -4, -10), 2, 13.007841129323326)
((11, 3, -2, 9, 2, 2, -2, -3), 2, 13.029730378503263)
((-5, 7, 30, 3, 0, 1, 0, 13), 2, 13.050504923798158)
((3, -16, -2, -6, -2, 0, 0, -5), 2, 13.074287744130128)
((16, -20, -103, -71, -16, -8, -5, 24), 2, 13.09466886452442)
((22, -16, 38, 34, 8, 1, -1, -13), 2, 13.11551411226522)
((-13, -46, -14, -4, 0, 0, 2, 0), 2, 13.139266713003376)
((-12, -19, -13, -2, -1, -2, -1, 2), 2, 13.162817469662093)
((-5, -68, -6, 1, 4, -3, -2, 2), 2, 13.183447759160101)
((1, 47, 51, 16, -2, 0, -1, -6), 2, 13.20385852896719)
((10, 36, -31, -12, -4, -7, 0, 41), 2, 13.226731340398636)
((-24, -46, 9, -2, -1, 0, 2, 2), 2, 13.246279996510491)
((23, 12, -9, -19, -1, -1, -2, -13), 2, 13.270986510087358)
((-5, -31, -8, -5, -7, 2, -2, -7), 2, 13.292201805307132)
((-11, 15, 40, 33, 1, 2, 5, 35), 2, 13.31510483633239)
((-2, 27, 29, -1, -5, 0, -1, -11), 2, 13.33512446196294)
((10, 30, 11, -6, 4, 1, -2, -9), 2, 13.35720529196404)
((-4, 3, -1, -17, -7, -5, -4, -5), 2, 13.379068882998286)
((14, -11, 18, -12, -2, -1, -2, 0), 2, 13.400483171392422)
((-13, -10, 4, 31, -3, -5, 0, -11), 2, 13.421692194621027)
((4, -11, -18, -8, 3, -3, -2, 10), 2, 13.441700986812283)
((3, -18, 3, -5, 0, 2, 0, 7), 2, 13.46515823378448)
((-6, 8, 1, 5, 1, 3, 1, -5), 2, 13.488624603652921)
((-2, 5, -52, 5, -6, -1, -1, -10), 2, 13.508294138140036)
((-3, -8, 5, 10, 1, -1, -1, -19), 2, 13.529882331743858)
((-2, 8, -5, -6, -8, -2, 3, -3), 2, 13.548832297789579)
((-2, 4, -4, 1, -2, 1, 0, -3), 2, 13.57569922723367)
((-2, 7, -13, -1, -5, 0, -2, -4), 2, 13.597995015477563)
((2, 6, 12, -1, -3, -4, -1, 0), 2, 13.621483622405606)
((2, 6, -48, -11, -5, -1, 1, -1), 2, 13.644736174393284)
((9, -4, 20, -1, -5, 2, 5, 2), 2, 13.667785171758478)
((-6, -5, 35, -8, 1, 0, -1, -1), 2, 13.69364516152943)
((11, 18, 21, 9, 2, 3, 2, -3), 2, 13.715773316554806)
((-4, -25, -19, -2, 4, 0, -1, -1), 2, 13.73666132787176)
((1, -11, -8, -11, -2, -1, -2, -6), 2, 13.757458680407268)
((9, 7, 19, 7, 2, 4, 3, 3), 2, 13.779352491035329)
((-2, 19, -12, -7, 1, -3, -2, 0), 2, 13.798664522025808)
((-8, 4, 4, -8, -4, 0, -3, -2), 2, 13.820420348848149)
((0, -16, 23, 3, 2, 0, -1, -1), 2, 13.839403955573776)
((-6, -50, 16, 4, 2, -1, 1, 0), 2, 13.860356967526481)
((-1, 4, 11, 7, 0, 1, -1, -1), 2, 13.882443499337734)
((-3, 6, -40, -14, -4, -3, -4, -2), 2, 13.9041520011358)
((-1, 14, 17, 4, 4, -1, -2, -3), 2, 13.92445956817911)
((12, -1, -10, -6, -6, -4, -1, 8), 2, 13.94588811109863)
((2, 6, 37, -4, -3, 1, 0, 4), 2, 13.971877531960072)
((3, 5, 57, 4, 3, 3, 2, 2), 2, 13.995441972963157)
((-2, 10, -1, -6, 2, 2, -1, -4), 2, 14.01564804778573)
((-1, 10, -15, -4, 1, -3, -1, -2), 2, 14.037707781089262)
((3, 14, 58, 18, 12, 4, 2, 2), 2, 14.05979032163341)
((1, 0, 27, 4, -2, -2, 1, 0), 2, 14.081055792782534)
((-5, -6, -23, 13, -7, -3, -1, -9), 2, 14.102976972099333)
((0, 8, -11, 6, -1, 0, -1, -1), 2, 14.126604133014109)
((6, 0, 21, 4, 3, 3, 2, 4), 2, 14.147702541125732)
((3, 15, 50, 3, -2, 0, 1, -1), 2, 14.168447437007828)
((-1, -9, 19, 22, 2, -2, 0, 0), 2, 14.191597356412741)
((-5, -11, -23, -3, 1, -1, 1, -4), 2, 14.212346243561944)
((-5, -11, -23, -3, 1, -1, 1, -4), 2, 14.231357789157324)
((4, 22, 59, 35, 0, -1, -2, 3), 2, 14.25322879254477)
((5, 5, 5, -5, 4, 1, 0, 3), 2, 14.273712545521827)
((-1, 2, 3, -7, -2, -2, -1, -1), 2, 14.295791094798865)
((-2, -5, -1, -11, 0, -2, 0, 0), 2, 14.315884273780396)
((-5, -32, 29, 3, 1, 1, 1, -1), 2, 14.338200018359828)
((2, 0, 5, -12, -1, 4, 0, 0), 2, 14.360579623212981)
((0, 15, -15, -11, -6, -1, -2, -1), 2, 14.380339246300522)
((0, 5, 17, -3, 3, -2, 0, 0), 2, 14.406082348963325)
((0, 1, -5, -1, -4, -1, -2, -1), 2, 14.42652105764017)
((0, -4, 42, 8, -3, 0, -1, 1), 2, 14.446926125637106)
((-1, 0, -1, -10, -3, -3, -2, 0), 2, 14.46719492037137)
((-3, -1, 2, -11, -5, 0, 0, -3), 2, 14.492180822645766)
((-1, 5, 4, 11, 5, 1, 0, 0), 2, 14.514124809203178)
((-6, -15, -62, -20, -5, -4, -3, -4), 2, 14.536390377853257)
((2, 5, 37, 12, 4, 0, 1, 0), 2, 14.556608996658168)
((-1, 8, -15, -8, -2, 0, -1, -2), 2, 14.577527797749951)
((-2, -7, -5, -4, -4, -2, -2, -1), 2, 14.597399176316506)
((0, 4, 2, 3, 1, -2, -3, -1), 2, 14.617725559333321)
((1, 4, 64, -1, 0, -1, -2, -1), 2, 14.641610442067043)
((0, 5, 35, 3, -2, 1, 0, 1), 2, 14.66737521160843)
((-1, -5, -33, -10, -5, -2, 0, -2), 2, 14.697587963250694)
((-1, 1, -13, -7, -4, -2, -1, -2), 2, 14.722167896642148)
((3, 9, -8, -30, -4, -3, -1, 1), 2, 14.741780413027724)
((-5, -13, -107, -13, -1, -4, -1, 0), 2, 14.763723259223106)
((4, 5, -15, 1, 9, 1, 1, 0), 2, 14.789875181673926)
((-1, 1, 13, -1, 1, 1, 1, 0), 2, 14.811580832566914)
((-2, -6, 3, -9, -2, -1, -2, -1), 2, 14.830680186038661)
((0, 9, 14, -2, -2, 1, -1, -1), 2, 14.856756274414439)
((-1, 2, 22, 17, 6, 2, 0, 2), 2, 14.878655786852653)
((-2, -2, 19, -7, 1, 0, 0, -2), 2, 14.902407817409793)
((0, -1, -1, 9, 3, 0, -1, -1), 2, 14.923493111358063)
((2, 5, 6, 6, 1, -1, -1, 1), 2, 14.943731686498513)
((1, 0, -2, 19, 3, 1, 0, 1), 2, 14.963208499802432)
((0, 7, 6, -9, -1, 2, -1, 0), 2, 14.982083201954124)
((1, -1, -2, -8, -5, -3, 1, 2), 2, 15.003017968114337)
((5, 9, -17, -49, -38, -22, -7, -2), 2, 15.024092998804331)
((12, 11, 25, 18, 26, 3, -1, -3), 2, 15.045243293388353)
((-12, 23, 25, -2, -7, 8, 2, 1), 2, 15.066927847583772)
((-14, -30, -19, 5, 4, -1, -2, -4), 2, 15.086365888578648)
((-28, -5, -6, -14, -8, -8, -8, -5), 2, 15.111330123974458)
((-18, -10, -4, -7, -6, 6, 2, 1), 2, 15.136101638187075)
((-6, 1, -16, -13, 0, -7, -3, -3), 2, 15.156888727464308)
((1, 6, 0, 7, 8, 4, 2, 4), 2, 15.173845340680305)
((0, -2, 1, 4, 0, -4, -1, -2), 2, 15.196659423467167)
((0, 4, 11, 1, -1, 0, 0, -1), 3, 15.225911990279554)
((-2, -40, -27, 3, -2, -7, 17, -27), 2, 15.640578414429228)
((10, 7, 13, 4, 2, 27, -26, -44), 2, 15.667746969630448)
((-2, 1, 28, 9, 5, 0, -2, -3), 2, 17.437464541868106)
((3, 11, 12, 12, 9, 7, 9, 3), 3, 17.476621152917417)
((5, -1, -26, -1, 0, 0, 4, 12), 3, 21.63107634780814)
((-49, -3, -10, -2, 1, 1, -7, -19), 3, 21.651200886745514)
((7, 14, 49, 28, 6, 3, 3, 8), 3, 21.67660872297128)
((4, -3, 21, 2, -6, -3, -2, 2), 3, 21.70311529801366)
((-1, 2, 9, 9, 3, 1, 1, 2), 3, 21.72654745702118)
((-6, -1, -32, -13, -1, -2, 1, -1), 3, 21.74601571760987)
((-2, -16, -83, -14, -7, -6, 7, -22), 3, 21.77002375944291)
((3, 9, 27, 10, 6, 0, -3, 12), 3, 21.7900114549366)
((-8, 6, 44, -2, -3, -2, 13, 20), 3, 21.80923111660259)
((0, -2, -1, 0, -2, -2, -1, -2), 3, 21.82785322856447)
((0, 10, 62, 41, 10, 4, 12, 2), 3, 21.84978410095853)
((0, -1, 10, 2, -4, -2, -2, 3), 3, 21.870093378544887)
((3, 0, 3, 0, 1, 1, 8, 16), 3, 21.89164964201185)
((-2, -2, 12, 11, 0, -2, -3, -9), 3, 21.912355195403883)
((0, -2, -7, -4, 2, 2, -2, 6), 3, 21.930604979162734)
((-1, 5, 20, 15, 6, 0, 4, 13), 3, 21.94924932818422)
((4, 2, 0, -3, -1, 0, -1, 4), 3, 21.978421499473438)
((-1, -7, -40, -4, -1, -1, -4, -6), 3, 21.999065473315813)
((9, 5, 11, -3, -1, 2, -3, -3), 3, 22.018608427617515)
((18, 0, 64, 6, 1, 0, 2, -11), 3, 22.040301534528165)
((-6, 5, 16, -3, -5, -1, 8, 11), 3, 22.060938096017342)
((-9, -4, -9, -3, -1, 1, -3, -9), 3, 22.08285927533414)
((-5, -3, 14, -39, -8, -3, -3, -3), 3, 22.10314973694699)
((1, -3, 4, 4, 1, -1, -5, 0), 3, 22.126000311318833)
((-2, -1, -27, 7, -3, -2, 0, 0), 3, 22.14865018197327)
((-13, 3, 31, -5, -2, -2, 0, -7), 3, 22.16927191875605)
((-7, -2, -55, 10, 4, 0, -2, -6), 3, 22.19027339609506)
((-6, -7, -56, -6, -1, 1, -8, -20), 3, 22.21042815462625)
((-1, -7, -5, 0, -3, -4, -3, -10), 3, 22.2315647648659)
((2, 5, -11, 3, 3, 1, 5, 1), 3, 22.251261097860738)
((34, 9, 12, 5, 1, 2, 6, 31), 3, 22.27146261123519)
((-7, 3, -1, 2, 5, 2, -2, 10), 3, 22.29511029866652)
((12, 2, -17, 3, 1, -1, 0, -5), 3, 22.315903089753903)
((14, 0, 4, 0, -4, 0, 3, 5), 3, 22.335725432753136)
((-1, -2, -13, -2, 1, 1, -7, -25), 3, 22.359123380899735)
((-2, -5, -36, 0, -5, -2, 1, 33), 3, 22.380574160878854)
((4, 2, -7, -8, -1, 1, -1, 1), 3, 22.401202169652798)
((1, 1, 47, 5, 1, -3, -6, -11), 3, 22.42413485009086)
((-5, -2, -50, -9, 0, 0, -11, -1), 3, 22.44506733552701)
((-15, -18, -3, 1, -6, -5, -5, 3), 3, 22.464795028477692)
((17, 4, -24, -9, 0, 1, 4, 3), 3, 22.48596927066436)
((-3, -4, -36, 10, -1, 1, -6, -13), 3, 22.50787049364562)
((-3, 3, -30, 3, 2, 0, 5, 11), 3, 22.526748616883403)
((-1, 2, 2, 6, 2, 1, 1, -4), 3, 22.547271142169503)
((5, 3, 1, -17, -3, 0, -1, 7), 3, 22.56659457678029)
((-7, -3, -24, -5, -1, -1, -7, -20), 3, 22.589524406313274)
((-36, -3, -26, -17, 0, -1, -5, -16), 3, 22.60886836744061)
((-5, 2, -30, -8, 1, 0, -10, -8), 3, 22.63033055104004)
((7, 2, 12, 2, -1, 0, -1, 12), 3, 22.652017956140536)
((-2, -3, -9, -27, -4, 1, -2, -6), 3, 22.6787206734522)
((-32, -4, -4, 11, 2, -1, -15, -33), 3, 22.705457601624786)
((17, 3, 9, 0, -1, 2, 6, 30), 3, 22.72626806832365)
((-3, 0, 18, 33, 0, 0, 3, -7), 3, 22.746464450068963)
((5, -7, 13, -5, -5, -5, -6, -1), 3, 22.768263040467456)
((-33, -5, -2, -4, -4, -3, -13, -38), 3, 22.794469130114738)
((0, -7, -17, -31, -3, -2, -2, 15), 3, 22.81323549787351)
((-5, -8, -9, 11, -5, -2, -1, -10), 3, 22.833661092387)
((-4, -4, -1, -2, -3, -1, -1, -5), 3, 22.85811843686015)
((8, 4, 23, 20, 3, -1, -1, 4), 3, 22.87865236576656)
((-1, 0, -5, 1, 1, 0, 8, -3), 3, 22.901197893295183)
((25, 10, 31, 4, 1, 3, 1, -6), 3, 22.92357692796732)
((-2, -2, 17, -1, 1, -1, -2, -11), 3, 22.947788524422847)
((-24, -8, -38, -23, -1, -1, -18, -61), 3, 22.96843420880827)
((-2, 4, 15, 6, 5, 6, 8, 8), 3, 22.994611219223767)
((0, 3, 10, 9, 2, 0, -11, -25), 3, 23.013216795936206)
((-11, -6, -15, -7, -4, -2, 3, -5), 3, 23.031730573505172)
((-9, -1, 26, -12, -1, 0, 0, -9), 3, 23.052054675797926)
((3, -3, -20, -8, -4, 0, -7, 7), 3, 23.072944397657924)
((5, 4, 16, -3, -3, 0, -11, -9), 3, 23.090219742061514)
((-4, -3, -6, -3, -2, -1, -2, 3), 3, 23.111479511400486)
((2, 4, 20, 19, 4, 1, 9, 5), 3, 23.13847872284014)
((-4, -4, -38, -9, -1, -3, -6, -9), 3, 23.156057403543905)
((-5, -6, -52, -15, -3, -3, -8, -7), 3, 23.177002432962393)
((-3, 1, 6, 5, -2, -2, -6, -4), 3, 23.198304395696503)
((-1, -6, 0, 11, -3, 1, 6, -5), 3, 23.220140047860994)
((0, 1, -1, 3, -2, 0, -3, -2), 3, 23.23949199152255)
((-3, 1, 26, -1, 0, 0, 4, 1), 3, 23.260402810080116)
((6, 4, 20, 7, -1, 0, 1, 3), 3, 23.279765016999946)
((31, -8, 5, -14, -5, -2, 0, 16), 3, 23.30052986921758)
((6, 4, -16, 1, 1, 1, -1, -5), 3, 23.321200071386663)
((-14, -4, -27, -9, 1, -1, 5, -3), 3, 23.341239083171736)
((-8, -1, -22, 2, -3, -1, 1, 6), 3, 23.363341009870403)
((-8, -5, 24, -13, -5, -7, -21, -17), 3, 23.38215356229142)
((-13, 1, 28, 8, 1, -3, -3, -17), 3, 23.40368929924183)
((8, 10, 25, 17, 3, 2, 21, 4), 3, 23.423289841826083)
((-4, -6, -17, -10, -1, 3, 0, 0), 3, 23.44301696459575)
((-4, -1, 12, 11, 0, -1, 0, 8), 3, 23.46471406277351)
((5, 1, -42, 0, 2, 0, 5, 8), 3, 23.484011839238605)
((-3, 4, 1, 18, -2, -1, -3, -4), 3, 23.505151300383332)
((1, 3, 24, 0, 0, 1, -1, 5), 3, 23.52520798777988)
((1, 4, 5, -7, 2, 0, 1, -4), 3, 23.54547108070399)
((1, -1, -3, -4, 1, 2, -2, 6), 3, 23.565739875438254)
((-4, -8, 1, 2, -3, -2, -14, -7), 3, 23.58994063845449)
((-2, -3, -2, -9, -5, -4, -3, 3), 3, 23.61254546480871)
((6, 9, 17, 8, 0, 0, 1, 0), 3, 23.63717272322444)
((8, 3, 3, 11, 0, 3, 13, 28), 3, 23.661051333966995)
((0, -1, 10, 8, 1, 1, 2, 4), 3, 23.687804797389028)
((-7, -14, -6, -17, -10, -5, -8, -10), 3, 23.71657898232952)
((2, 11, 34, 27, 3, 1, 0, 2), 3, 23.73740085264869)
((3, 2, 8, 17, 4, 2, 8, 31), 3, 23.754894576381165)
((-3, 7, -20, -1, 4, 4, 1, -13), 3, 23.777030143759738)
((-8, 4, 2, -1, 0, 2, -4, -3), 3, 23.798096051553486)
((-1, -1, 2, -1, -3, -6, -2, 7), 3, 23.81881757001395)
((0, 1, -1, 3, 5, 4, -5, 3), 3, 23.838087407609294)
((-3, -8, -28, -8, -2, -1, -4, -13), 3, 23.859524503244046)
((0, 1, 20, -1, 1, 1, 5, -1), 3, 23.8805276911261)
((2, 0, -11, -4, 5, 3, 1, 16), 3, 23.904280291864257)
((7, -9, -34, 0, -9, -4, 4, -9), 3, 23.92734810520296)
((-2, 7, 39, 12, 2, -1, -2, 4), 3, 23.94755817129264)
((-1, -2, -21, 4, 2, 0, -2, -1), 3, 23.970498834264912)
((-3, -1, 12, -2, 3, 1, -2, -3), 3, 23.99117131715806)
((10, -7, -31, -27, -7, -2, -1, 18), 3, 24.012989293711076)
((-1, -1, 4, -1, -4, -2, 4, 11), 3, 24.033705110361385)
((-2, -4, -8, 1, -5, -2, -1, -10), 3, 24.05693485510845)
((-4, -1, 10, -4, 0, -1, -11, -25), 3, 24.0769470683858)
((3, 0, -20, 1, -2, -1, 2, 4), 3, 24.09732191678892)
((2, 4, 9, -6, -2, 0, -3, 2), 3, 24.128286737190457)
((2, -1, -7, 22, 1, 0, -6, -3), 3, 24.151006740109782)
((-8, 0, 29, -10, -4, -1, 2, -2), 3, 24.17262287258336)
((-4, -5, -23, -11, -5, -4, 9, -10), 3, 24.194769273401228)
((0, 1, -1, 6, 1, 0, 2, -3), 3, 24.21548451987052)
((-7, -16, -15, -21, -9, -6, -6, -1), 3, 24.238282637588956)
((-1, 3, -1, 1, 4, 1, -3, 4), 3, 24.25887130387284)
((1, 0, -20, -4, -3, 0, -1, 3), 3, 24.279431461105958)
((0, -1, -17, -9, -4, 1, 2, 3), 3, 24.300996847469165)
((-3, -10, -62, -9, -2, -1, -3, -4), 3, 24.322246923730876)
((-1, 1, 9, -3, -3, -2, 0, 1), 3, 24.342414226244404)
((-1, 0, 4, 1, 6, 1, -3, -1), 3, 24.362546747715996)
((0, -1, 5, -4, -1, 1, 3, -1), 3, 24.387217339888895)
((0, -3, -29, -3, -4, -6, -3, 0), 3, 24.40911799268914)
((-1, 1, -3, 1, -11, -4, 1, -1), 3, 24.433529152500043)
((2, -1, 5, -1, 0, 0, -1, 0), 3, 24.456661966474496)
((2, 2, -3, -5, 7, 1, 1, 1), 3, 24.478522706603666)
((-1, -2, -19, -13, -9, -3, -2, -3), 3, 24.502657328622117)
((-3, 0, 1, -4, -24, -8, -3, -1), 3, 24.52240212700326)
((-9, -5, -5, -7, 7, 1, 0, -3), 3, 24.54536160594904)
((-2, -4, -14, -7, -13, -8, -6, -3), 3, 24.56393867361071)
((9, 2, 12, 31, -9, 0, 2, 3), 3, 24.584281021695958)
((-5, -9, -1, -3, -6, -7, -6, -3), 3, 24.605136532695035)
((10, 4, -58, -5, 0, -1, -2, 1), 3, 24.805319674837172)
((-7, 2, 39, 21, 4, 4, 4, 12), 3, 24.826404398604424)
((-3, 0, 28, 10, 0, -1, 0, -1), 3, 24.84849207077771)
((2, -31, 11, 1, -4, -4, -15, -3), 1, 25.22054658692495)
((-13, 64, 38, -21, -7, 0, 3, 11), 1, 25.24396050013998)
((7, -5, -2, 10, 2, 1, -26, -8), 1, 25.267909813328437)
((-59, -53, -17, 0, 3, 1, -6, -22), 1, 25.290998723364705)
((14, -6, -2, 3, -1, 2, 8, 4), 1, 25.312301826460846)
((-11, -19, 4, -8, 2, 5, -7, -3), 1, 25.339027351013126)
((-7, -10, 9, -15, -5, 1, 1, 2), 1, 25.363425396660677)
((-4, 12, -14, 3, 15, 13, 19, -1), 1, 25.385067757460963)
((-13, -61, -15, -5, -11, -6, 2, 9), 1, 25.4109123523445)
((22, 5, 0, 5, -1, 2, 6, -8), 1, 25.431124699158243)
((-1, -3, -20, -3, -11, -1, 4, 4), 1, 25.45661635199327)
((40, 2, -8, -9, 0, 0, -4, 2), 1, 25.47844345144253)
((-5, -38, -4, -8, 2, 3, 12, 17), 1, 25.50063147547452)
((-36, 2, -5, -9, -5, -1, 8, 6), 1, 25.52393819465866)
((-68, 0, -1, -11, -10, -3, 10, 13), 1, 25.546756268712628)
((22, 39, 4, 8, 4, 12, 13, -1), 1, 25.57076773163176)
((13, -8, 9, -2, -1, -5, -5, 4), 1, 25.592060571469624)
((-6, 3, 1, -2, 3, -3, 9, 24), 1, 25.613810696481814)
((-14, -36, 0, 10, 5, 0, -9, -15), 1, 25.639204278182195)
((0, 26, 2, -7, -8, -8, 0, 1), 1, 25.667429948985905)
((33, 9, -8, -9, 5, 6, -3, 5), 1, 25.70300582325871)
((3, 1, -1, 0, -3, -5, -7, -9), 1, 25.72841708057057)
((-12, -18, -11, -3, 9, 6, -2, -9), 1, 25.760358621051424)
((16, -43, 3, -21, -8, 0, 0, 4), 1, 25.780207192377365)
((-23, -4, -3, -1, -3, -4, -7, -17), 1, 25.80415650556582)
((27, -3, 0, 13, 6, 2, 1, 4), 1, 25.82835099659089)
((25, 34, 9, -4, -6, -3, 5, 10), 1, 25.85344067181008)
((33, -10, -5, 0, -4, -1, 5, 4), 1, 25.88073466683468)
((-4, 14, 0, -9, -4, -2, -10, -2), 1, 25.905585436208433)
((3, -4, -2, -9, -7, 0, -3, -4), 1, 25.927905172054974)
((9, 78, 0, 9, 2, -3, 2, -8), 1, 25.95044385741141)
((-25, -28, -5, -5, -10, -1, -5, -6), 1, 25.9754109437123)
((-16, -20, -2, -1, -2, -1, -8, -12), 1, 26.003529990666138)
((-15, -3, 3, 0, 4, 6, 4, 1), 1, 26.025454020888013)
((-13, -24, 0, 15, -7, -7, -14, -8), 1, 26.048487053184775)
((-8, -28, -7, -17, -6, -4, 4, 3), 1, 26.072873125031002)
((5, -2, 1, -2, -3, -1, 3, -1), 1, 26.093360299094154)
((32, -14, -2, -13, -10, -3, -3, -2), 1, 26.123640902277245)
((27, 79, 15, -9, 3, 7, 6, 19), 1, 26.14513786691861)
((-19, -24, -6, -1, -4, -6, 0, 19), 1, 26.161563641609302)
((-28, -33, -4, 13, 6, -1, -3, -2), 1, 26.1862490584886)
((24, 3, -9, -7, -3, -1, 1, -4), 1, 26.2090163864322)
((-24, -2, -2, -5, -6, -1, -2, 7), 1, 26.229105574146626)
((17, -7, 0, 0, 6, -2, -2, 0), 1, 26.252020578973205)
((-6, -1, 3, 0, 3, -1, -1, 17), 1, 26.273036881018616)
((17, -4, -2, -11, -2, -1, 1, 4), 1, 26.29501507843695)
((2, 0, -1, -12, -4, -1, -2, -20), 1, 26.31596409912255)
((-5, -6, 2, 6, 3, -1, -5, -11), 1, 26.33491064408218)
((-27, -87, -3, 2, 3, 1, -8, -32), 1, 26.356595198277596)
((20, 7, 1, -12, -5, -2, -1, 1), 1, 26.384049414167517)
((-3, 4, 0, 0, 0, -1, -1, -10), 1, 26.40571629275146)
((-35, -38, -2, 0, -1, -2, 7, 24), 1, 26.425072797861137)
((-52, 9, -4, 20, 20, 8, -1, 8), 1, 26.450328965936816)
((4, 5, 2, -18, -10, -6, -6, -6), 1, 26.472897300706055)
((6, 12, 6, 3, 4, 0, -2, 5), 1, 26.494760321559287)
((5, 10, -2, -2, -4, -2, -1, -1), 1, 26.517978662686044)
((9, 0, 2, 2, 0, 2, 1, 8), 1, 26.538794261014043)
((13, 6, -2, -19, -11, -4, -3, -5), 1, 26.55782462258293)
((3, 22, 8, 6, 7, 4, 0, -13), 1, 26.581850910208463)
((0, -17, -3, -6, -3, -1, -1, 10), 1, 26.604061171300053)
((-21, -10, 0, 10, 6, 1, 0, 12), 1, 26.625190369186505)
((-11, 1, -2, -2, 0, 0, -4, -6), 1, 26.645307495770684)
((-16, -9, -4, -5, -3, -2, -9, -8), 1, 26.668719698442665)
((-11, -16, -2, -5, -4, -3, -5, -6), 1, 26.698894818137916)
((-7, 23, 3, 1, 6, 2, -5, -5), 1, 26.718559791176904)
((-11, -34, -3, 5, -5, -4, -2, -2), 1, 26.739418153081058)
((14, 7, -4, -6, -4, -1, -1, -8), 1, 26.76195797879953)
((30, 24, 3, 2, 2, -2, -1, -12), 1, 26.786064661948227)
((20, 9, -2, 0, -5, -1, -7, 4), 1, 26.80673258339325)
((-41, -29, 5, 9, 11, 3, 1, -5), 1, 26.82719866075883)
((4, 4, -2, -11, -10, -3, 2, 0), 1, 26.850323492199067)
((-13, -5, -3, 0, 0, -2, -11, -11), 1, 26.87287814262394)
((-38, 5, -3, -10, -7, -4, -1, -6), 1, 26.89895252045667)
((-3, 2, 1, -6, -1, 2, 4, 5), 1, 26.9200919816014)
((-7, 16, -1, 2, 4, 4, 0, 11), 1, 26.94088933413691)
((-20, 16, 1, 5, 12, 4, -5, -1), 1, 26.961683835767342)
((-6, -7, -3, 0, 1, -1, -4, -7), 1, 26.985425603066204)
((4, 3, 4, -2, -2, -2, -1, 0), 1, 27.00986413156585)
((-7, 1, -2, -4, -2, -2, -2, -6), 1, 27.031048066829776)
((12, 0, 1, -1, 3, 3, 2, 11), 1, 27.05128379106515)
((8, -2, -2, -18, -2, -3, 1, -2), 1, 27.074889855282358)
((18, 11, -2, -1, 1, 0, -2, -1), 1, 27.098307189583476)
((3, -3, 4, 7, 4, -1, -4, 5), 1, 27.12064403086048)
((7, 2, -3, -1, 3, 1, 4, 4), 1, 27.14227042659233)
((-10, -5, 1, -3, -3, 0, -2, 7), 1, 27.165148369652915)
((-20, -3, -12, -5, -5, -5, -14, -32), 1, 27.18640642844884)
((-6, -14, 0, 0, -1, -1, -2, 5), 1, 27.208812831809716)
((-18, -14, 0, -6, -2, -1, -1, -3), 1, 27.231899461121923)
((-24, -3, 1, 1, 2, 3, 0, 1), 1, 27.25238948609015)
((-7, -8, 0, 5, 2, -2, -3, 0), 1, 27.27348675383974)
((14, -13, -4, 0, 1, -1, -8, -7), 1, 27.299866748696708)
((-3, -6, -2, 9, -1, 0, 3, -3), 1, 27.32197437720553)
((10, 7, -1, 2, -2, 0, 3, 3), 1, 27.341913607312915)
((11, 22, 0, -3, -3, 1, 0, 1), 1, 27.365317257269666)
((-4, -2, -9, -8, -8, -3, -5, -5), 1, 27.3868353186086)
((5, 0, -2, -2, -1, 0, -2, -4), 1, 27.409578698949556)
((14, 0, -3, -2, -4, 0, -1, -5), 1, 27.43042622741442)
((-23, -4, -3, -2, -5, -2, -2, -4), 1, 27.452281835914448)
((7, 6, -1, 2, 7, 0, 0, 3), 1, 27.472146942489832)
((-8, -1, -2, -5, -8, -1, 11, 2), 1, 27.494311018919177)
((13, -3, -2, -3, -2, 0, -2, 3), 1, 27.516871941335214)
((-20, 3, 4, 1, -3, -2, 1, 3), 1, 27.536824285605952)
((10, 4, 1, -3, -1, 1, -1, -4), 1, 27.556183641620706)
((6, 6, 1, 0, -6, -3, -5, 0), 1, 27.576381163728048)
((-7, -36, -4, -1, 2, 0, -3, -4), 1, 27.5993024405458)
((-2, -5, -6, -1, -2, -3, 1, 0), 1, 27.623728425063106)
((-8, -16, -4, -4, -2, -1, 0, -2), 1, 27.64747019236197)
((-38, -10, 1, 2, 4, -1, -1, -5), 1, 27.671508453788825)
((9, 22, -3, -6, -5, -3, -5, -1), 1, 27.699979302429142)
((-34, -30, -3, -1, -1, -3, -4, -6), 1, 27.72613293542301)
((-10, -3, -2, -4, -2, 0, 2, -1), 1, 27.750056590465775)
((-11, 0, 1, 12, 4, 3, 5, -1), 1, 27.772380887760438)
((-15, -5, -4, -13, -4, 11, -2, 0), 1, 27.791810376040083)
((-4, -2, 2, -5, -6, 3, 1, -3), 1, 27.81460165158633)
((-1, 0, 13, -2, -1, -2, -4, -1), 1, 27.834575092554633)
((-2, -2, 46, 0, -1, -6, 0, -1), 1, 27.856637676763242)
((1, 2, -4, -2, 3, -2, 1, -2), 1, 27.876315763965586)
((-3, 1, -22, 8, 0, -8, -5, 0), 1, 27.897166143335525)
((0, 5, 27, 12, 3, 5, 2, 0), 1, 27.922323670095544)
((-2, 3, 24, -12, 0, -1, 1, 11), 1, 27.940622489421717)
((-2, -2, -10, 0, -4, -2, 1, -15), 1, 27.96250489642947)
((-2, -6, -5, 7, 0, 0, -2, -4), 1, 27.98342027643516)
((2, 2, 5, 3, 2, 0, -1, -5), 1, 28.005371105164755)
((2, 3, 28, 5, -1, -1, 0, 2), 1, 28.02708473859196)
((1, -2, -11, -6, 0, 1, -1, 0), 1, 28.048248147339336)
((3, 1, -41, -21, -1, 3, 4, 6), 1, 28.067696451592486)
((0, 4, 42, 23, 4, 2, -1, -21), 1, 28.088655165355345)
((-36, -24, -3, -8, -5, -5, -3, -35), 1, 28.113312073183874)
((-1, -5, -15, 3, -1, -2, 0, 5), 1, 28.136703749339304)
((-11, -60, -14, 0, -5, -6, -3, -10), 1, 28.153647818572964)
((20, 26, 14, 2, 0, -3, -2, 7), 1, 28.17628400488303)
((6, 9, -27, -11, -3, -1, -1, -5), 1, 28.198168122433827)
((-2, 22, 13, 7, 1, 1, -5, -1), 1, 28.222565597900367)
((12, -2, -38, -6, 6, 15, 6, 11), 2, 28.439337016322572)
((-16, 23, 32, 38, 3, 2, 1, -15), 2, 28.46052209194853)
((30, -3, 2, 9, 4, -2, -3, 1), 2, 28.48393600516356)
((-1, -17, 25, 21, 4, 4, 5, 23), 2, 28.505029281646046)
((-12, 96, 26, 19, 5, 5, 4, 7), 2, 28.526562167691377)
((-23, 36, 1, -30, -2, -4, -4, -29), 2, 28.551551491051864)
((16, -55, -5, 10, -2, -5, -4, -19), 2, 28.570113734007137)
((41, 19, -38, -11, -5, -5, -12, -37), 2, 28.59070753192016)
((-13, -6, 14, 8, 1, 1, 2, 24), 2, 28.611979275060452)
((-14, 3, 23, 7, -1, 0, 1, -1), 2, 28.635522049184956)
((10, 17, 57, -13, 6, 6, 4, 8), 2, 28.657703801225775)
((-6, 4, 41, -8, 4, 1, 2, 11), 2, 28.68507363032542)
((34, 3, -11, 9, 1, 0, 1, 28), 2, 28.711925164882096)
((14, 91, 15, 2, 0, 1, 4, 36), 2, 28.733924458997997)
((-5, 13, 10, 7, 0, 0, -1, 0), 2, 28.754458387904407)
((8, 7, 3, 10, 3, 4, 1, -15), 2, 28.77509780029866)
((-17, 7, -7, -1, -4, -4, -2, -26), 2, 28.796480158555937)
((-17, 11, -48, -5, 0, -7, -4, -6), 2, 28.815328632380922)
((-1, 16, 37, 22, 2, -1, 1, -26), 2, 28.83780858909278)
((-4, -10, -16, -3, -1, -1, -3, -3), 2, 28.858123568489287)
((-7, 6, -43, -17, -8, -7, -7, -22), 2, 28.882020425024333)
((1, -29, 32, 13, 1, -1, 1, -13), 2, 28.904411433497792)
((-31, -18, -51, -49, -10, -5, -3, -5), 2, 28.9272568762405)
((-15, 1, 11, -5, -2, -2, -1, 22), 2, 28.951214171963173)
((1, -4, 32, 16, 5, 4, 3, 10), 2, 28.972874778555948)
((-2, -16, -74, -5, -3, -3, -2, 11), 2, 28.992515803992294)
((-2, -8, 12, 8, 1, 0, -1, 0), 2, 29.016074543185226)
((-6, -15, 0, -22, -6, -2, 0, 1), 2, 29.03961446640465)
((-4, -2, 25, 12, 2, 0, -1, -1), 2, 29.059005752556264)
((-4, 1, 7, 12, 0, -1, 0, 3), 2, 29.080827720376387)
((-3, -1, -17, 11, 5, 4, 3, -12), 2, 29.10240736126498)
((-4, 6, -15, -16, -5, -3, -1, -6), 2, 29.124702009146844)
((3, -3, -5, -18, -7, 0, 0, -2), 2, 29.14738266957611)
((-2, -15, -19, 3, -6, -4, -1, -5), 2, 29.16803348559067)
((9, 13, 21, 11, 7, 3, 3, -4), 2, 29.18564580697434)
((2, -7, -8, 6, 2, 1, 1, 2), 2, 29.209296915491763)
((3, 21, -5, -19, -3, -1, -2, 3), 2, 29.229768694667495)
((-7, -12, -37, 10, 7, 2, 0, -8), 2, 29.25137399370178)
((-2, -4, 6, -5, 2, 3, 1, 2), 2, 29.271608577575122)
((2, 2, -43, -15, -7, -6, -3, 18), 2, 29.290250645872547)
((8, 3, 15, 3, 0, -1, 1, 13), 2, 29.315264487016695)
((-5, -16, 3, 9, -3, -1, -1, -5), 2, 29.337008910218728)
((-10, -21, -55, -14, -3, -3, 1, -5), 2, 29.36387698002485)
((-1, 0, 6, -2, 1, 0, -2, 4), 2, 29.384190819059327)
((-4, -4, -11, -1, -6, -2, -2, -4), 2, 29.40556006315325)
((-8, 2, 7, 6, 0, 0, -2, -6), 2, 29.42936398018279)
((8, -17, 6, 8, 1, 0, 1, -1), 2, 29.452903333221197)
((15, -6, 8, 8, -5, -1, 0, 1), 2, 29.472388699240348)
((-4, 2, 26, -1, 3, 1, 0, -8), 2, 29.492854776605927)
((-1, 5, -3, 3, 0, -2, -1, 4), 2, 29.512309923031264)
((1, 4, 14, 10, -1, -1, -1, 3), 2, 29.534126189041235)
((-15, -52, 19, 9, 2, -1, -3, -3), 2, 29.558565287721894)
((-3, -13, -17, -8, 0, -1, 0, -2), 2, 29.57957075632801)
((1, 16, 17, -3, -2, 0, 0, -5), 2, 29.599992359574394)
((12, -2, 4, 1, -3, -2, -1, 4), 2, 29.619787904065905)
((12, 62, -19, -13, -7, -5, -2, 28), 2, 29.64068389791707)
((0, 7, 19, -3, 0, 2, 0, -6), 2, 29.66729652662831)
((-5, -13, -9, -5, -5, 0, 0, 1), 2, 29.696172773970552)
((-2, 2, -38, -24, -1, 0, 0, -2), 2, 29.718018689393322)
((1, -15, 44, 9, 0, 1, -1, -3), 2, 29.740585313619516)
((-4, -4, -6, 2, -4, -2, -1, 0), 2, 29.766458987734836)
((1, -3, 9, 2, 4, -1, 1, -2), 2, 29.785753913294855)
((-4, -9, -24, -6, -4, -1, -1, -2), 2, 29.80719157911062)
((5, 5, 0, -7, -4, -4, -2, 8), 2, 29.831650634126817)
((-1, 3, 9, -2, -1, -1, 1, -4), 2, 29.855306874273374)
((7, 0, 15, 8, -1, -1, 0, 3), 2, 29.878069640768857)
((-3, -2, -49, 2, 1, 1, -1, -4), 2, 29.89827685595346)
((-3, -11, 41, 12, 4, 1, 0, -2), 2, 29.92065189935849)
((-2, -2, 23, 4, 1, 1, 0, 1), 2, 29.94043375950563)
((-2, 4, 8, 0, 5, -1, -2, -2), 2, 29.964188070786832)
((-6, -8, -29, -2, -9, -5, -3, -6), 2, 29.984995686580618)
((-8, -4, -12, -2, 4, 0, 0, -12), 2, 30.005320929235403)
((-1, -4, -72, -27, -3, -2, 0, -3), 2, 30.02499616553267)
((-1, -1, 33, 16, 3, 3, 1, 4), 2, 30.045861939790026)
((0, 1, -4, -1, 0, 0, 0, -8), 2, 30.06797812101408)
((0, 0, 10, 0, 6, 0, -1, 1), 2, 30.087101992269485)
((-8, -13, 33, -8, -7, -3, -1, 30), 2, 30.107273286050123)
((-1, 4, 1, 2, -3, -1, 0, 4), 2, 30.13238405796688)
((-10, 3, 45, -13, 2, 1, 3, -20), 2, 30.152923688683448)
((-4, -2, -4, -5, 2, 0, 0, 2), 2, 30.177115328803435)
((-1, -2, -13, 4, -1, -3, -1, -2), 2, 30.199537697232742)
((-6, -2, 5, 7, -2, 1, 0, -4), 2, 30.2204593492296)
((-1, 2, 24, 9, 0, 2, -2, -4), 2, 30.244255283724925)
((-2, -15, -12, -3, -5, -1, -1, -1), 2, 30.26860486398617)
((-7, 5, 13, 3, -1, -1, -1, -2), 2, 30.287505224283553)
((2, 0, -57, -31, -3, -1, -1, -5), 2, 30.309753117322156)
((1, -8, 24, 22, 1, 0, 1, 3), 2, 30.33015134314691)
((0, 8, 11, -4, -3, -2, 0, -2), 2, 30.351283962119453)
((-2, -4, 4, 4, 3, 0, -2, -4), 2, 30.3731697902133)
((-4, -3, -2, -1, -1, -2, 1, 17), 2, 30.396503878086175)
((-1, 13, -22, -37, -7, -2, -2, -1), 2, 30.416769251734348)
((-9, -27, 21, 14, 3, 2, -1, 2), 2, 30.43438385384208)
((1, -1, 14, 6, -1, -1, -3, -2), 2, 30.45889422514966)
((1, 2, -3, -2, -1, -1, -1, -1), 2, 30.481508174400126)
((3, -1, 21, -2, 3, 1, 0, 1), 2, 30.50167091546553)
((1, 0, -70, -7, -1, -1, 2, 2), 2, 30.52181141947134)
((0, -3, 34, 2, 4, 0, 0, -1), 2, 30.544943093083763)
((2, -1, -11, -6, 1, 2, 2, 3), 2, 30.570480360400015)
((4, 2, 0, -16, 0, -1, -1, 6), 2, 30.59297799272335)
((-5, -12, -15, 2, 0, -1, -2, -2), 2, 30.61423662170029)
((1, 3, 21, -7, -3, -1, 0, 0), 2, 30.6363807417941)
((5, 3, 11, -1, 1, 2, 1, 1), 2, 30.655891195777922)
((-3, -6, 12, 1, 2, 1, -1, -2), 2, 30.685189947252553)
((1, 8, 37, 4, -3, 0, 0, 1), 2, 30.71058067804786)
((1, 11, 21, 5, 0, 0, 0, 0), 2, 30.73139171492774)
((-2, -1, 2, -1, -1, -1, -3, -2), 2, 30.754105445855895)
((4, -6, -4, -9, 1, -1, 1, 3), 2, 30.775843026885745)
((5, 6, 8, -2, 0, 1, -1, 1), 2, 30.79738674637037)
((-4, -13, -59, -10, -5, -3, -4, -4), 2, 30.81961183216836)
((0, -1, 26, 0, 2, -1, 0, -2), 2, 30.840852215352808)
((0, 2, -15, -1, 1, 2, 0, 0), 2, 30.862021896091353)
((-1, -2, 4, -6, -2, -1, 0, -3), 2, 30.88286486310809)
((1, 13, 13, 13, 3, 1, -1, 1), 2, 30.90646807642022)
((-4, -4, -13, -2, -1, -2, -1, -3), 2, 30.92946347676997)
((0, -1, 1, 3, 3, 3, 0, 1), 2, 30.950213504281205)
((0, -2, -34, -2, 2, -4, -1, -1), 2, 30.97093502274167)
((-2, -4, -46, -3, 3, -1, -1, 1), 2, 30.998152043329195)
((0, 0, -2, -9, 1, 7, -1, -1), 2, 31.018090703255563)
((-1, 0, -10, 4, 10, -7, -2, 0), 2, 31.03901235525242)
((-1, 1, 11, -2, -3, -1, 0, -1), 2, 31.0624912691032)
((2, 3, 9, 3, 2, 0, -1, 2), 2, 31.086747909858943)
((0, -7, -28, 7, -4, -4, -1, -1), 2, 31.106438541043627)
((2, 6, 34, 15, 30, 9, 4, 1), 2, 31.13261441109709)
((-1, 0, 30, -31, -10, -3, 0, 0), 2, 31.156950307013968)
((-1, 1, -10, -7, 5, 0, -1, -1), 2, 31.18297793000344)
((-2, -1, 10, -21, 4, 4, 0, 0), 2, 31.203305453382285)
((-1, -2, 13, 0, -3, -4, -2, -2), 2, 31.22559896090212)
((1, 3, -16, 24, -7, 2, -1, 0), 2, 31.24774251081491)
((0, 4, 24, 23, 2, -1, -1, -2), 2, 31.26889394576096)
((0, -15, 2, -15, 7, 1, 1, 1), 2, 31.29161223813724)
((-3, -7, -20, 3, -3, -2, -1, 0), 2, 31.312162132112082)
((-6, -7, -79, -27, -1, -3, -3, -3), 2, 31.33190464976916)
((-10, -2, -61, -5, -7, -3, -3, -5), 3, 31.5168343093882)
((4, 23, 32, 21, 10, 7, 9, 9), 3, 31.53570216936771)
((37, 14, 14, 11, 8, 7, 5, 19), 3, 31.558244275810242)
((12, 1, 36, 24, 4, -6, -15, -8), 3, 31.861466539782384)
((-23, -7, -84, -46, -15, -8, -5, -2), 3, 31.882018714481287)
((-21, -7, -10, 14, 5, 2, -2, 13), 3, 31.90350199477828)
((1, 10, 47, 2, -5, -7, -26, 13), 3, 31.92466882461175)
((-11, 64, 26, 2, 6, 5, 4, 58), 3, 31.945035120299643)
((-1, -37, 14, 6, 6, 1, 1, -6), 3, 31.96546356571821)
((15, -11, 47, 15, 0, -1, -12, 4), 3, 31.98549288442602)
((-20, -14, -62, -8, -9, -9, 4, -24), 3, 32.007051428617046)
((13, 29, 18, 23, 2, -2, 7, -2), 3, 32.02699065872442)
((-32, -10, 32, -13, -2, -4, 5, -8), 3, 32.04705304793113)
((19, -17, -15, 1, -1, 2, 9, 12), 3, 32.0672220609877)
((5, -39, -37, -11, -4, -2, -28, -44), 3, 32.088814245858636)
((-2, -6, 45, 16, 10, 8, 12, -10), 3, 32.108544789714394)
((45, 18, -34, 7, 7, -1, -1, -62), 3, 32.13031829214821)
((49, 57, 30, -9, -1, -1, 15, 43), 3, 32.160282444867775)
((-3, 16, 4, -6, -2, -2, -1, 7), 3, 32.1822121768998)
((2, -16, -20, 3, 7, -4, -4, 47), 3, 32.20418296196493)
((-33, -15, -1, -13, -7, -1, 1, -2), 3, 32.229171144963395)
((13, 12, 18, -3, 2, 7, -12, -14), 3, 32.25017034157834)
((2, 22, -1, 3, -9, -6, 0, 0), 3, 32.27324727781329)
((1, 9, -7, 1, -4, 7, 0, -4), 3, 32.29654088283407)
((1, -6, -33, -4, -1, -10, -22, -11), 3, 32.31861658120604)
((8, -13, -81, -24, -2, -1, 5, 14), 3, 32.33847427542822)
((-7, -2, 30, 37, -4, -6, -3, -65), 3, 32.35963198236544)
((-5, 8, 15, 34, 3, 3, 2, -5), 3, 32.37907857607555)
((-15, -30, 3, 21, -5, 1, 9, 14), 3, 32.397324938748305)
((-12, -11, -26, -6, -13, -5, 0, -6), 3, 32.42327957856781)
((9, -13, -14, 9, 9, 2, -8, -31), 3, 32.44285674373043)
((7, 5, 18, 10, 1, -1, 8, -21), 3, 32.4626283406193)
((3, -12, -18, 1, 0, 3, 7, 11), 3, 32.48403179557414)
((-6, 4, 18, 15, 2, -5, -20, -34), 3, 32.50608582706752)
((-9, -1, 40, -25, -7, -2, 6, 16), 3, 32.52720590205772)
((45, 1, -10, 0, -2, -3, 16, 76), 3, 32.54799185097293)
((-2, 2, -1, 18, 3, 1, 0, 1), 3, 32.568811440568034)
((-11, -4, 18, -21, -3, -2, -17, -50), 3, 32.59088428803492)
((-1, 22, 13, 0, -5, -1, 9, 8), 3, 32.6131720937446)
((-4, 4, -39, -5, 0, 4, 11, 2), 3, 32.634654803860585)
((-33, -13, -14, -32, -12, -4, 0, -34), 3, 32.65883332981722)
((-19, -3, 13, -13, -5, -1, 3, 0), 3, 32.685762408991984)
((-5, -9, 43, 3, 1, -4, -10, 28), 3, 32.709604528149555)
((-9, 11, 11, -2, -1, 0, -13, -33), 3, 32.73179597326763)
((-6, -7, -12, -10, 1, -1, 5, 9), 3, 32.75155901744127)
((1, -17, 1, -12, -5, -4, -9, -21), 3, 32.77334107259031)
((7, 13, 13, 36, 9, 7, 17, 23), 3, 32.79313775744386)
((-5, -3, 7, 11, -2, 1, 11, 16), 3, 32.81383361775863)
((13, 12, 8, -2, 0, 4, 6, -3), 3, 32.836018220704524)
((-39, -22, 16, -75, -17, -11, -16, -45), 3, 32.85730934999935)
((9, 8, 13, -3, 9, 6, 7, 12), 3, 32.87743502929875)
((0, -1, -3, 16, -1, 0, 1, 5), 3, 32.89621736212595)
((6, -46, -18, 11, -3, -2, 2, -45), 3, 32.91694629293962)
((32, 17, 65, 2, 4, 4, 4, 13), 3, 32.94074507834002)
((3, 8, 11, 37, 6, 2, 8, 17), 3, 32.960276629021415)
((-12, 2, 1, 11, 4, 1, 2, -5), 3, 32.98028542121267)
((-7, -7, -43, 8, 4, -3, -3, -13), 3, 33.00047895205291)
((-9, 3, 27, 13, 1, 0, 1, 7), 3, 33.02513928096753)
((-10, -8, -63, -36, -10, -8, -10, -10), 3, 33.046515937414654)
((6, 3, 21, 11, 3, -1, -14, -12), 3, 33.06726482456386)
((-1, 4, 11, 0, 2, 1, 3, 1), 3, 33.08843279475935)
((6, -1, -26, -18, -3, -2, -6, 10), 3, 33.10941488594384)
((11, 3, 39, 4, 10, 4, 6, 47), 3, 33.13613071741886)
((0, 9, 28, 4, 3, 0, 2, 13), 3, 33.159066248761995)
((6, 1, -4, -28, 0, -2, 1, -1), 3, 33.17928657810995)
((-9, -6, -4, -30, -6, -1, 0, -2), 3, 33.1973841235377)
((1, 7, 9, 9, 8, 5, 2, 7), 3, 33.21756397003357)
((-6, 1, -7, -1, -2, 1, 4, 3), 3, 33.23949940387575)
((-1, 4, 10, 21, -1, 1, 4, 51), 3, 33.258914637630006)
((5, -1, -30, -23, -2, 0, -4, 13), 3, 33.28073660545013)
((12, -4, 10, -2, 7, 2, -1, -4), 3, 33.301031628511105)
((2, 9, 50, 23, 1, 2, 6, -5), 3, 33.32138081876853)
((-2, -3, -51, -11, 0, -2, 8, -5), 3, 33.34283901110086)
((3, 1, 4, -7, -1, -2, -3, -14), 3, 33.363332457155174)
((-7, -2, -1, -1, -5, 3, 4, -1), 3, 33.38580101024672)
((1, -7, -26, -29, -3, -3, -2, -6), 3, 33.40947150491866)
((3, -3, -19, 22, 1, -1, 1, 9), 3, 33.431452553242075)
((1, 0, 3, 18, 4, 2, -4, -4), 3, 33.4570628037283)
((3, 7, 30, -22, -1, 3, 1, -1), 3, 33.479099729791216)
((10, 4, -11, -10, 4, 2, 10, 29), 3, 33.498309128198926)
((0, 0, 10, 8, -2, -1, 4, 8), 3, 33.520676189069746)
((0, -4, -5, 8, 0, 0, 5, 12), 3, 33.54615700846548)
((-23, -13, -27, -45, -11, -6, -12, -27), 3, 33.56553575063475)
((3, -2, 10, 5, 4, 1, -4, 0), 3, 33.58525318032716)
((1, -2, 11, 19, 3, 2, 7, 9), 3, 33.60656882740564)
((0, 0, -19, 5, -4, -1, -2, -7), 3, 33.62843755006902)
((0, -5, 5, 1, -6, -1, -1, 6), 3, 33.65004341928432)
((2, -1, -13, -12, 0, 0, -3, -8), 3, 33.67537713197809)
((1, 2, -5, 10, 6, 2, -4, -6), 3, 33.70283191804902)
((1, -3, 33, -39, -6, -4, -7, 34), 3, 33.72623556800578)
((-3, 2, 17, 16, 4, 1, -4, -12), 3, 33.749268600302536)
((-2, -5, -6, 16, -4, -3, -2, -10), 3, 33.76983445934581)
((1, 3, -20, -11, -3, -1, -2, -12), 3, 33.79002799018605)
((12, 8, 27, 39, 5, 2, 2, 1), 3, 33.81029849546336)
((-4, -5, -22, 0, 2, 1, -2, -11), 3, 33.83133874511141)
((-3, 2, 14, -5, 1, -1, 1, -3), 3, 33.85673004608773)
((-3, -1, -16, -2, -2, -5, -6, -7), 3, 33.87788262139581)
((0, 3, 17, -2, -3, 0, 1, 1), 3, 33.89755785769308)
((-2, 2, 4, -9, -10, -3, -1, 1), 3, 33.917644764683445)
((2, 3, 7, 2, 1, -1, -2, -2), 3, 33.943485368299875)
((2, 2, 11, 20, 3, 1, 2, 0), 3, 33.96499886819068)
((-1, -8, 7, -17, -13, -13, -7, -1), 3, 33.98342426770227)
((-3, -5, -1, -2, 3, 3, 0, -4), 3, 34.005761108979264)
((-2, -2, -10, 26, -12, -5, -3, -4), 3, 34.02617415951042)
((2, 0, 1, -7, -4, -2, 1, -1), 3, 34.04849560590001)
((-1, -4, 7, -12, -1, -3, -3, 1), 3, 34.06917892223244)
((-3, 0, -1, -4, -2, 1, -3, -11), 3, 34.089621622176395)
((-4, -1, -6, -14, -8, -2, -2, 8), 3, 34.11080669780235)
((-3, -5, 1, -14, 6, -1, -2, -3), 3, 34.13659313422232)
((1, -4, -7, -8, -6, -4, -5, -3), 3, 34.16174267844813)
((1, 3, 2, -2, -5, -4, -2, 0), 3, 34.179807723558)
((-1, -1, -11, 4, -4, -2, 1, 2), 3, 34.202740974177075)
((1, 0, 6, 0, 3, 7, 4, 1), 3, 34.22326406964419)
((-2, -2, 0, 7, 5, -5, -2, 0), 3, 34.24493322895219)
((-4, -1, 1, -2, 4, 1, -2, 0), 3, 34.270976817010094)
((-2, -1, 1, -8, -8, -2, 0, 1), 3, 34.29216417336011)
((2, -11, 0, -1, 7, 3, -18, -13), 1, 34.88124212793836)
((41, 23, -39, 1, 1, 6, 4, 28), 1, 34.901793162275226)
((24, -13, 16, 7, -1, 6, 18, 7), 1, 34.92316525727423)
((38, -10, 2, -1, 5, 22, 5, 11), 1, 34.943165496750254)
((70, 15, 14, -20, -2, -1, 18, 18), 1, 34.96328091279138)
((-12, -36, -16, -3, -8, -14, -8, -6), 1, 34.98934445718482)
((15, -5, 7, -5, -3, -2, -9, 11), 1, 35.008267054541804)
((-5, 25, -7, 2, -3, 5, -7, -11), 1, 35.028091108084084)
((-49, -56, -22, -16, -5, -6, 1, -6), 1, 35.05301999225694)
((-6, -6, 5, -11, -6, 7, 9, 12), 1, 35.07528442054499)
((20, -8, 0, -3, 0, 7, 5, 10), 1, 35.09685208763226)
((-37, 4, 2, -6, -11, -5, -19, -9), 1, 35.12351774317793)
((-59, -2, -17, 4, 1, 4, 0, -9), 1, 35.144163997744364)
((4, 10, 3, -5, -4, 0, -5, -7), 1, 35.164187044461)
((-10, 2, 7, 1, 5, 3, 1, 3), 1, 35.19357018272591)
((27, -15, -10, 18, 2, 7, -4, -18), 1, 35.214673152285656)
((34, -17, 13, -7, -7, -2, 0, 4), 1, 35.23531826649006)
((14, 14, 9, -4, 3, 7, 15, 18), 1, 35.2561093470344)
((-47, -33, -11, -4, -3, 0, 9, 10), 1, 35.27918913417442)
((-1, 57, 7, 2, 9, 2, 2, 1), 1, 35.30113084000778)
((10, 1, 2, -6, 3, 3, -2, -14), 1, 35.32207872033134)
((12, 8, 5, 2, -4, 2, -6, -2), 1, 35.34290458191762)
((-47, -12, -9, -3, -6, -3, -2, -25), 1, 35.36411531568927)
((11, -4, -4, 1, 0, 6, 1, 2), 1, 35.38776129257756)
((2, 14, -3, -1, 5, 2, 1, 3), 1, 35.40953650555442)
((-18, -6, -4, -5, -13, -3, -5, -5), 1, 35.4314793517498)
((0, 4, -17, -9, -1, -3, -4, 2), 1, 35.45470795613483)
((-2, 14, 11, 0, -2, -1, 2, -6), 1, 35.475700880758616)
((-16, 1, 8, 1, 3, 3, 5, -5), 1, 35.49651020709545)
((-33, -2, 10, 8, 5, -1, 1, 5), 1, 35.52054219653113)
((13, -7, 5, 3, 5, 4, 19, 60), 1, 35.54193310750364)
((5, -36, -4, -13, -3, -5, -3, 3), 1, 35.56116588333298)
((16, -13, 4, 3, 1, -6, 5, 33), 1, 35.58239429271611)
((-7, -18, -4, 5, -9, -8, -5, 15), 1, 35.60846467928173)
((-19, -40, -16, -10, -4, -11, -49, -41), 1, 35.626876964629965)
((-34, -12, -2, -8, -3, -3, -3, 1), 1, 35.64792747753629)
((-56, -8, 5, 10, 7, 3, 11, 2), 1, 35.68016551214514)
((4, 0, 1, -10, -7, -4, -3, -3), 1, 35.70564576135986)
((25, 5, -5, 0, -1, -3, 2, -2), 1, 35.73059859313536)
((-15, -9, -11, 4, 0, -1, -12, -19), 1, 35.752112663207186)
((8, 8, 6, 6, 6, 1, 4, 2), 1, 35.774452355389265)
((-16, -4, 7, -2, -5, 6, 4, -8), 1, 35.800093395650315)
((3, 11, 8, -7, -1, -4, -6, -4), 1, 35.822141725333545)
((9, -2, 3, 1, 2, -5, -6, 26), 1, 35.8440429483148)
((-21, 26, -1, -11, -3, 4, 6, -20), 1, 35.867529844699796)
((62, 8, -6, -8, -4, -1, 0, -8), 1, 35.89014721503636)
((17, 5, -9, 7, -4, -5, 0, -21), 1, 35.91372362984077)
((14, 7, -1, -10, 0, 1, 5, 34), 1, 35.93609411179767)
((-2, -11, -4, -1, -8, -3, -7, 8), 1, 35.95692852609918)
((-2, 12, 8, -3, 6, 3, -6, -7), 1, 35.97775495786647)
((-18, 6, 7, 0, 10, 9, 4, -40), 1, 36.001159178004244)
((-4, -16, 3, 1, 0, -2, 0, 18), 1, 36.022349955440355)
((3, -10, -2, -1, -1, -2, -3, 15), 1, 36.04398661443048)
((14, -1, 1, -8, -4, -1, -1, 9), 1, 36.06246960222462)
((-31, 5, 2, 0, 1, -2, 3, 2), 1, 36.08337015752391)
((25, 0, 3, -9, -9, -2, 0, -4), 1, 36.10532839860671)
((-4, 22, -1, 0, -3, -4, -7, 15), 1, 36.12744686055482)
((22, -20, -1, -3, 0, 0, -1, 25), 1, 36.146488055563)
((18, 4, 2, 11, -5, 1, -1, -8), 1, 36.168796957970244)
((-23, -11, -2, -10, -1, 0, 4, 1), 1, 36.1889465848723)
((-15, -20, -5, -12, 0, 0, -2, -1), 1, 36.21057355078517)
((-2, -6, -5, -4, -2, -3, -8, 10), 1, 36.23334829108197)
((-43, -9, -1, -2, -1, -3, 17, 8), 1, 36.25325616123351)
((5, -1, 2, 0, 5, 0, -5, 8), 1, 36.272247180312334)
((-2, 6, -1, -3, 2, -2, 2, 3), 1, 36.29271211731589)
((-29, -6, -5, -4, -9, -8, -4, 3), 1, 36.32066866268034)
((-2, 3, -8, -1, 4, 0, -5, -17), 1, 36.34126075005032)
((18, 7, 3, 3, -3, 4, 4, -3), 1, 36.36197371579556)
((21, -9, 3, -11, 1, 0, 1, 4), 1, 36.38530951421148)
((-18, -4, 4, 10, 4, 0, 1, 4), 1, 36.406636564910265)
((-30, -1, -9, -6, 1, -2, 10, 9), 1, 36.4279208520329)
((24, 20, 6, -5, -7, -1, 5, 11), 1, 36.44861557198564)
((15, 1, -2, 1, -2, 0, 3, 4), 1, 36.47021916047688)
((-40, 7, -3, 3, 3, -2, -1, 0), 1, 36.48993773053131)
((-5, -1, 1, 3, 3, -5, -11, -1), 1, 36.511299562272036)
((7, 2, 1, 0, -4, 1, 2, 0), 1, 36.53208209010114)
((15, 1, 0, 0, -3, 4, 0, -6), 1, 36.55329966604498)
((-3, 2, -20, -7, -4, -4, -6, -8), 1, 36.57621809195766)
((10, 3, 11, -2, -3, -4, -4, 5), 1, 36.59649943067426)
((-16, -3, -1, 6, 10, 3, -7, -3), 1, 36.619455488533944)
((-32, -13, -2, -3, -4, 5, -1, -8), 1, 36.64045924659702)
((-31, 1, -9, 1, -7, 0, 3, -2), 1, 36.66019264135785)
((-3, -7, -3, 2, 11, 52, 4, -1), 1, 36.69271690683642)
((-24, -13, -15, 4, -9, -11, -21, -60), 1, 36.71943786994057)
((18, -2, -6, -6, -4, 5, 3, 12), 1, 36.74031162673214)
((21, -1, -5, -24, -5, -2, -2, 9), 1, 36.761122663612014)
((8, 2, -6, -5, -7, -11, -5, 5), 1, 36.78369841073446)
((4, 2, 3, 9, 5, 3, 6, 6), 1, 36.80577981091657)
((40, 10, 2, 6, 11, 6, 8, 5), 1, 36.82717015170806)
((7, -1, -3, -7, -5, -1, 0, -5), 1, 36.84956515144863)
((-10, -3, -3, 4, -1, 1, 3, -5), 1, 36.8710398790304)
((11, 4, 3, 5, 1, -7, 1, 2), 1, 36.8922785516718)
((3, -2, -6, -3, -5, -3, -2, 2), 1, 36.91273721668418)
((-5, -3, 2, -5, -1, -1, -2, 1), 1, 36.93346044568769)
((0, -6, -3, -2, 3, 3, -1, -4), 1, 36.95463924932248)
((-1, -5, -18, -5, -5, 0, -1, 1), 1, 36.97660376239645)
((1, -34, -5, -3, 1, 0, 1, -2), 1, 36.997090366278584)
((60, 61, 18, 10, 1, 2, 4, -19), 1, 37.019221942390054)
((0, -29, 15, 2, 5, 29, 19, 14), 1, 37.040095129000605)
((-61, -53, -41, 2, -16, -60, 36, -82), 1, 37.06000813078128)
((30, 16, 24, -1, 4, 22, 7, 48), 1, 37.084260780269915)
((35, -10, -3, -48, -4, 21, -31, 47), 1, 37.103402897317814)
((61, 8, 108, 67, 3, -1, -3, 54), 1, 37.126522026947896)
((9, -40, -39, -39, 3, 17, 34, 117), 1, 37.149670235809765)
((36, 23, 58, 72, 2, -28, -48, -35), 1, 37.17121224475134)
((13, -2, 25, -71, -9, -6, -19, -46), 1, 37.192284424536254)
((-10, -9, -61, 1, 4, 16, 10, 18), 2, 37.25870709174041)
((34, -14, -49, -13, -4, -11, -3, 9), 2, 37.278372064779404)
((4, -5, -57, -9, 0, -2, -2, -29), 2, 37.300525307769455)
((-19, 15, -57, 16, 10, 5, 11, -36), 2, 37.32240600423417)
((-8, 9, -13, -49, -5, -10, -7, 105), 2, 37.34382542425744)
((58, 11, 49, 14, 3, 4, 5, 37), 2, 37.36416891270471)
((25, 10, 20, 9, 4, 4, -2, 15), 2, 37.38605188989349)
((-19, 5, 0, -7, -1, 0, -1, -26), 2, 37.40501896136966)
((-52, -4, 6, -46, -7, -10, -12, -45), 2, 37.426051798664524)
((-17, -22, -40, 20, -3, -4, -1, -12), 2, 37.44792793368111)
((12, -4, -26, -10, -3, 0, 1, -2), 2, 37.46898186767353)
((6, 0, 11, 0, -3, -4, -1, 22), 2, 37.48874035039904)
((16, -4, -69, -29, -2, -4, -2, 11), 2, 37.5092873934688)
((-18, -16, 4, 10, 4, 1, -7, -58), 2, 37.53601405838312)
((49, 15, 88, 25, 9, 5, 3, -19), 2, 37.55694198237114)
((-9, 10, 26, 11, 3, -2, 0, 6), 2, 37.57819890080504)
((-24, 6, 23, -6, 1, 1, -1, -14), 2, 37.601873956925104)
((-15, -5, -74, -18, -3, -5, -2, 6), 2, 37.62401237520876)
((-22, -41, 20, 8, -1, -2, 1, 2), 2, 37.6452117053601)
((12, 12, 23, 16, 0, 3, 5, -57), 2, 37.66819114064142)
((7, 19, 2, -1, 3, 2, 1, -27), 2, 37.69731598690636)
((5, 7, 45, 3, -3, 0, -1, 11), 2, 37.71992765543277)
((8, 1, 2, 22, 4, 2, 1, 5), 2, 37.74265221980022)
((-7, -21, -95, -24, 1, 1, -2, 3), 2, 37.76361777573526)
((16, -3, 15, 17, -1, -3, 1, 61), 2, 37.78356840946295)
((1, -2, 9, 0, -3, -2, -1, -8), 2, 37.8071351311901)
((2, 59, -3, 2, -1, 0, -2, -13), 2, 37.82720949419812)
((-26, -36, 23, 3, 3, 4, 1, -38), 2, 37.84849036023466)
((-10, -17, -15, -32, -3, 0, -3, -3), 2, 37.8687580146069)
((-18, -15, -26, 9, -3, -6, -6, -24), 2, 37.889380891751706)
((-57, -8, -23, -6, -1, -2, -10, -95), 2, 37.910674301770584)
((18, 7, 11, 2, -1, 3, 4, -5), 2, 37.94055292733784)
((4, -5, 2, -3, -2, -2, 0, 8), 2, 37.96100018872992)
((-13, -5, 52, 2, -2, -1, -4, 17), 2, 37.98358733947266)
((29, 7, -11, 0, 2, -1, 2, 49), 2, 38.004320831734454)
((-7, -11, -19, -10, -2, 0, 0, -8), 2, 38.02367220521499)
((14, 4, 42, 21, 4, -1, 1, 5), 2, 38.045038598403835)
((6, 1, 34, -3, -3, -1, -2, 1), 2, 38.06754079217529)
((-6, 8, -22, -4, -4, 2, 1, -19), 2, 38.08734602974406)
((16, 8, -49, 13, -1, 0, 1, -3), 2, 38.106132353838376)
((-5, -1, 13, 2, -2, -4, -2, -11), 2, 38.12887345345527)
((-3, 4, 29, 3, 5, 7, 3, -7), 2, 38.149269968736974)
((-9, 2, 18, -1, 2, 0, 1, -31), 2, 38.1695336318421)
((10, 2, 5, 8, 0, 1, 3, -13), 2, 38.19256837468191)
((11, 3, -3, 1, 1, 2, 2, 5), 2, 38.21264444823298)
((23, 19, 70, -32, -7, -4, -2, 3), 2, 38.233082586728806)
((0, 6, 34, 2, -1, 0, 0, -5), 2, 38.254074941171574)
((1, 5, -17, 2, 1, -1, -2, -11), 2, 38.275750372470746)
((-3, -8, -66, -3, -6, -4, -3, -5), 2, 38.29963924647158)
((-19, -3, 2, 10, 3, 2, -6, -57), 2, 38.32067949611963)
((2, -6, -25, -3, -1, -2, 3, 21), 2, 38.34167071020037)
((7, 5, -65, -44, -5, -2, 0, -13), 2, 38.36769548228476)
((0, -1, 10, -2, -2, -2, 0, 6), 2, 38.387546334334765)
((5, 9, -3, 8, -1, 0, 0, 5), 2, 38.40743310778873)
((2, -4, 11, 10, 4, 5, 2, -4), 2, 38.43869670304232)
((4, 2, 8, 1, -1, -2, -2, 32), 2, 38.464044670261465)
((-2, 3, -6, 5, -1, -3, -1, -7), 2, 38.484948076465834)
((1, 1, 4, 6, 2, 1, 0, 3), 2, 38.50565248949584)
((10, 7, -6, -6, -2, 5, 4, 17), 2, 38.5245260512855)
((-1, -5, -18, -11, 4, -1, 0, -4), 2, 38.54603613009022)
((4, -3, -14, 2, 3, -3, -1, 1), 2, 38.57127291201137)
((-5, 1, -11, 19, 3, 4, 0, -9), 2, 38.58984598840594)
((0, 2, 18, 2, -2, 2, -1, -1), 2, 38.61212467121937)
((-3, 3, 22, 1, -5, -2, -1, 3), 2, 38.63182214457624)
((5, -2, 1, -18, -2, -4, -2, -2), 2, 38.65107145565503)
((-7, -9, -1, -2, -2, -5, -3, -3), 2, 38.68540775640042)
((-21, -14, -35, -15, -6, -4, -9, -67), 2, 38.70950018502374)
((-10, -2, -11, -4, -3, -2, -1, -12), 2, 38.72995143768292)
((10, 1, 40, 19, -1, 1, 1, 7), 2, 38.81833462669394)
((5, 14, 48, 26, 3, 0, -1, 9), 2, 38.83963088761789)
((-7, -9, -29, -19, -3, 0, -1, -1), 2, 38.85914020123969)
((-6, -3, -19, 1, -1, 1, 2, -8), 2, 38.88435018465312)
((1, 1, 34, 9, -1, -3, -2, -1), 2, 38.90545600511795)
((-2, -2, -40, 6, -4, -5, -3, -1), 2, 38.92665362472624)
((-10, -9, -62, -27, -6, -4, 0, 3), 2, 38.94768817256414)
((2, 4, 47, 12, 3, 5, 1, 0), 2, 38.97084835522733)
((0, 12, 26, 13, 1, 2, 0, 1), 2, 38.990895919727635)
((-1, 0, -41, 6, 1, 1, -2, -1), 2, 39.01298245153889)
((0, 1, -9, -11, 3, 2, 0, 1), 2, 39.03255391489136)
((-1, 0, 5, 7, -3, 1, 1, -1), 2, 39.05479097449067)
((-1, 1, 32, 10, 6, 2, 3, -2), 2, 39.07967139327722)
((0, 1, -2, -5, 2, 2, -2, 0), 2, 39.098526709274395)
((1, 1, 13, 4, -1, 0, -2, 0), 2, 39.12097644639243)
((-2, -5, -7, -1, -1, 3, 0, -1), 2, 39.14013908995689)
((-1, -6, -48, -31, -7, -6, -5, -1), 2, 39.164306782474235)
((2, 4, 11, 3, 0, -1, 0, 1), 2, 39.187301042461954)
((1, 2, -32, -10, -2, -3, -2, 0), 2, 39.20822440500186)
((1, -1, -75, -15, 0, 0, -2, 0), 2, 39.23137660513083)
((0, 1, 22, 5, 0, 2, 0, -2), 2, 39.25115447401087)
((-2, 0, -11, -21, 3, 0, -2, -1), 2, 39.27139875096147)
((0, -2, -2, -9, -12, -4, 1, 1), 2, 39.293679714498964)
((1, 2, 9, 6, -7, -1, 0, -1), 2, 39.31333271373663)
((0, 0, 5, -5, -6, -1, -2, -2), 2, 39.337364132991304)
((-12, -8, 3, 1, -1, -6, 2, -7), 2, 39.356358002975206)
((-23, 0, 10, -35, 5, 0, -2, 0), 2, 39.379633932384515)
((13, 8, 25, 36, 12, -8, -1, 3), 2, 39.398324466068246)
((9, 0, 3, -1, 6, -6, -4, 0), 2, 39.41855106740737)
((-14, -2, 10, 10, 8, 0, 1, -1), 2, 39.442438801046166)
((-4, 10, 8, -10, 6, -1, -9, -17), 2, 39.4643018218994)
((-34, -25, -12, 13, -18, -16, -31, -41), 3, 39.709306323478515)
((-16, -4, -79, -14, -10, -10, 0, -22), 1, 39.83716257400237)
((-51, 0, 40, 2, 0, 1, -3, -38), 3, 41.898056195900516)
((18, 3, 25, 8, -4, -1, 2, 8), 3, 41.91801481216242)
((-7, -12, -42, 3, -3, -4, -1, -2), 3, 41.94446037783615)
((7, 4, 62, 11, -2, -1, -9, -21), 3, 41.963296307678796)
((-9, -7, 18, -10, 1, -2, -22, -54), 3, 42.466141796035984)
((4, 6, 12, 15, 4, -1, 12, 21), 3, 42.48606049962682)
((-5, 9, 46, 14, 6, 2, -1, 13), 3, 42.50942252636945)
((0, -5, -10, -24, -3, 0, 3, 8), 3, 42.52960294304633)
((8, 13, 66, 45, 6, 5, -11, -7), 3, 42.549784500085245)
((-6, -9, 0, -8, -6, -4, 3, 2), 3, 42.57217664892073)
((-2, -3, -15, -8, -1, 0, -1, 3), 3, 42.5926866302245)
((-3, -7, -21, -17, -5, -3, -2, -13), 3, 42.61517171856549)
((20, -2, -8, -7, -1, 0, 0, -4), 3, 42.635145729714814)
((-18, -14, -64, -9, -3, -5, 9, -20), 3, 42.65788796969374)
((-2, -5, -30, -9, -4, 0, 0, 6), 3, 42.68637022195436)
((-5, 0, 37, 17, 2, -3, -5, -11), 3, 42.70843451670602)
((-9, 3, 70, 18, 3, -3, -1, 10), 3, 42.729480468164226)
((-4, 2, 5, 13, 4, 4, 0, 7), 3, 42.74871837562271)
((10, 15, -2, 6, 1, 0, 14, 26), 3, 42.7699194163171)
((4, 7, 8, 6, 3, 2, 11, 29), 3, 42.79144888127634)
((12, 0, -13, 2, 1, 2, 2, 0), 3, 42.811866493255614)
((-5, 2, -13, 1, -1, -2, 1, -13), 3, 42.83194256680668)
((-1, -11, 39, -9, -8, -6, -11, -10), 3, 42.85703623329298)
((10, 1, 3, 6, 2, -1, 8, -15), 3, 42.87780906804483)
((-6, 2, -8, -5, -2, -1, 1, 3), 3, 42.898051634452386)
((-2, 3, 31, 12, 1, 1, -3, -1), 3, 42.923684121998214)
((-5, 0, -2, 0, 0, -1, -1, 2), 3, 42.94681408506759)
((-1, -1, -27, -2, -2, -2, -4, -13), 3, 42.96893083647265)
((0, -17, -68, -14, -5, -5, 9, 19), 3, 42.99089534954662)
((-11, 13, 44, 25, 4, 2, -5, -14), 3, 43.011873449464)
((2, -8, -8, -18, -5, -2, -7, -12), 3, 43.031475132410286)
((-4, 3, 11, 0, 2, 1, 1, 9), 3, 43.05073983837649)
((33, -6, 22, -27, -9, -2, -4, 6), 3, 43.07267014058953)
((-2, 2, -24, -1, 2, 0, -7, -7), 3, 43.09323428908976)
((21, 1, 28, 16, 0, -1, 9, 63), 3, 43.11436462733824)
((0, 1, -44, 4, -2, 0, -2, -9), 3, 43.13546360563088)
((-15, 1, 21, -5, 1, 0, -4, -17), 3, 43.15550603850204)
((-41, -12, -26, -1, -4, -5, -14, -46), 3, 43.17869244949194)
((2, 9, 4, 4, 4, 5, 11, 16), 3, 43.19823711433669)
((-4, -7, -57, -57, -3, -2, 7, 6), 3, 43.21823108182154)
((3, 8, 12, -3, 3, 3, 10, -18), 3, 43.24202473559281)
((2, 3, 22, 20, -1, -1, -3, 4), 3, 43.262751385682414)
((10, 5, 28, 11, 3, 7, 6, 13), 3, 43.284621818888844)
((-6, -4, -3, -5, 1, -1, -6, -9), 3, 43.307256294655865)
((8, 9, 0, 31, 2, 0, 12, 16), 3, 43.32872360988443)
((8, 7, 34, 7, 5, 3, 10, 13), 3, 43.34944569852591)
((1, 7, 11, 10, 5, 4, 20, 44), 3, 43.37422063382462)
((-11, -3, -14, 1, -2, -2, 2, 1), 3, 43.39541369198479)
((-4, 2, 27, 5, 0, 5, 8, 11), 3, 43.41636385303242)
((-3, 1, 8, 9, 3, -2, -1, 12), 3, 43.43559491831872)
((-5, 9, 26, 19, 5, 4, 6, -50), 3, 43.4576267127525)
((-16, -6, 9, -5, -2, -3, 7, -27), 3, 43.481141548007244)
((6, -3, -51, -13, -3, -4, -4, 20), 3, 43.50076261710805)
((-1, 3, 19, 5, 4, 1, -5, 20), 3, 43.521785761325646)
((-1, 2, -1, 3, -1, -2, -18, -17), 3, 43.54134468069578)
((18, -8, -27, -32, -7, -2, -2, 24), 3, 43.5608773717392)
((3, 6, 22, 7, 2, 2, 5, -10), 3, 43.58409115141784)
((-2, 4, -4, -1, -5, -3, 2, -4), 3, 43.60677124166609)
((-3, -6, 16, 11, 1, 0, 0, 2), 3, 43.627390697724806)
((32, -1, -8, -3, -19, -10, -15, -12), 3, 43.64680022966891)
((-9, -4, -48, -17, -3, -3, -13, 0), 3, 43.67898865852942)
((-5, -2, 3, -3, 4, 2, -4, -2), 3, 43.69734563631916)
((-4, 1, -5, -8, 3, 2, 7, 2), 3, 43.720966525242765)
((-9, -8, 21, -26, -4, -4, 1, 1), 3, 43.74213905688639)
((10, 9, 19, 39, 3, 1, -4, 3), 3, 43.76239929890542)
((1, 7, 27, 26, 13, 10, 7, 7), 3, 43.78337283737468)
((-7, -2, -3, -7, -12, 1, -5, -4), 3, 43.80175376276706)
((-4, -2, -19, 1, 1, 9, -1, -2), 3, 43.823744504167735)
((-1, -1, 0, 5, 10, -4, 3, 3), 3, 43.8455567789106)
((-2, 0, 2, -14, -13, -5, -2, -2), 3, 43.864846002660464)
((4, -4, -5, -2, -2, -2, -2, 0), 3, 43.88765039237006)
((3, 3, 5, 0, -1, -1, 2, 1), 3, 43.908496780472895)
((-1, -11, 53, 1, -1, 3, 2, 3), 3, 43.930684804504885)
((-7, 2, 83, 8, 0, 1, -3, -3), 3, 43.95186531868272)
((9, 0, -23, 3, -1, -2, -1, 4), 3, 43.972243588171935)
((-5, 9, 23, 8, 2, 3, -1, -1), 3, 43.99509188181972)
((-5, -16, 78, 26, 0, -3, -4, -2), 3, 44.015304798814476)
((0, 7, -49, -3, -7, -3, -3, -3), 3, 44.03642145271859)
((1, 1, -13, -2, 3, 1, 1, 0), 3, 44.05839679923185)
((-2, -21, -74, -12, -1, -1, -1, -1), 3, 44.07969248997479)
((2, 9, 86, 20, 5, 1, 2, -1), 3, 44.104887648681824)
((-24, -47, -90, -103, -31, -14, -12, -14), 3, 44.126860144290006)
((-55, 11, 22, 5, -11, -7, 4, -3), 1, 44.2355645846887)
((-62, 7, 3, -3, -2, 4, 1, 11), 1, 44.25671145818663)
((18, -3, -2, -12, 9, -1, 13, -11), 1, 44.278606409176724)
((31, 68, 5, 5, 9, -2, -9, -19), 1, 44.30084860040517)
((6, -18, 6, -21, -6, 0, -6, 0), 1, 44.320633311457385)
((21, -11, 5, -3, -4, -3, -10, -23), 1, 44.34063469129545)
((37, -19, -7, 7, 10, 3, 6, 26), 1, 44.360863573358635)
((0, 16, 4, 7, -3, 0, 0, 7), 1, 44.379326034636215)
((-22, -13, -10, -8, -9, -4, -5, 3), 1, 44.40418421636317)
((-43, 1, -1, -17, -11, -7, -22, -31), 1, 44.42636083677485)
((-15, -7, -19, 6, -11, -9, -4, 0), 1, 44.446500200418626)
((12, 7, 12, -5, 3, 5, 14, 9), 1, 44.468702478976)
((1, 16, -3, -16, 3, 2, -4, -1), 1, 44.490147557144965)
((19, -14, 6, -11, 0, 4, -2, 3), 1, 44.51117982425881)
((4, -9, -6, 24, 4, -1, -6, -9), 1, 44.53204445815413)
((0, -3, 4, -5, -5, -1, 0, 8), 1, 44.554103621276646)
((13, -17, -2, 2, 0, -2, -4, -6), 1, 44.576450725811924)
((30, 27, 2, -12, -1, 1, 3, 25), 1, 44.598141551998516)
((2, -7, -4, -6, 0, -1, -2, -6), 1, 44.62066370210551)
((-7, -2, 4, -2, -10, -5, -11, -5), 1, 44.64197763864094)
((18, 12, 8, -13, -13, -6, 5, 1), 1, 44.668393554901876)
((-15, -20, 0, -12, -8, -7, -27, -24), 1, 44.69584663042976)
((15, 1, -2, 2, 1, 3, 7, 18), 1, 44.716729510117574)
((-14, -4, -1, -1, 6, 2, -2, -6), 1, 44.736316368357464)
((-4, -11, -3, -10, -10, -4, 2, 2), 1, 44.75613757099466)
((-5, -7, -2, 3, 4, 1, 1, -5), 1, 44.77696343258094)
((5, 8, 0, 5, 2, -3, 2, -3), 1, 44.79933277417582)
((3, -4, -3, -10, -5, 1, 7, 5), 1, 44.82285217087869)
((-6, -4, -6, 3, 10, 0, -2, -12), 1, 44.84227709771021)
((0, 2, 3, 3, -1, -1, -14, -19), 1, 44.864112179693684)
((6, -1, 3, -9, -6, -1, -8, -4), 1, 44.89097910913778)
((-11, 32, 2, -11, -9, -3, -4, -1), 1, 44.912709847995444)
((-2, 9, -1, -9, -7, -4, -8, -7), 1, 44.94018002895379)
((4, -10, -2, 3, 0, 3, 2, 14), 1, 44.9609922061957)
((9, 20, -3, -7, -1, -4, -8, -7), 1, 44.98023980673144)
((-62, 2, -2, -5, -3, -1, -2, -3), 1, 45.00056162830013)
((35, 4, 2, -11, 3, 2, 3, 3), 1, 45.02456282796099)
((17, 2, 2, 3, -1, 2, 6, 7), 1, 45.046962389149684)
((-11, 4, 5, 3, -2, 0, 6, 14), 1, 45.06836926519062)
((-14, 1, 5, -4, 1, 2, 3, 4), 1, 45.08911245052967)
((-3, -7, 1, -11, 5, 0, 6, 7), 1, 45.1145670415987)
((6, 4, -2, 4, -5, 0, 4, 5), 1, 45.13533987635054)
((-31, -8, -1, -2, 0, 1, 11, 0), 1, 45.155702750952344)
((2, 0, -1, 5, -1, -1, 2, -1), 1, 45.176264048547495)
((4, 7, 2, 24, -3, -6, 4, 6), 1, 45.1971058752022)
((10, -3, 2, -8, 0, 1, 1, 6), 1, 45.220920625671035)
((-9, -21, -4, 3, -9, -5, -15, -12), 1, 45.24158968747808)
((19, 4, 1, 0, 5, 2, 4, 2), 1, 45.26219831009751)
((-20, 1, -8, 8, 3, 0, -7, -1), 1, 45.286486310809096)
((-5, -3, 2, -6, -1, 1, -3, -2), 1, 45.308500429631394)
((29, 13, -2, 2, 3, 2, -5, -5), 1, 45.330788235341075)
((12, 1, -4, -4, -1, -2, -1, 0), 1, 45.35439943118742)
((-4, -7, 3, -3, 2, 1, -4, -4), 1, 45.376472278654305)
((-4, 5, -4, -9, -5, 0, -6, -6), 1, 45.396995374121424)
((-15, -1, 1, 5, 0, -4, -3, -8), 1, 45.436609840526074)
((-18, -5, -2, -1, -5, -2, -2, -9), 1, 45.46515595306042)
((29, 8, 4, 32, 11, -1, 0, 3), 1, 45.48598979718091)
((24, 2, 8, -5, -2, -1, -1, 0), 1, 45.50707851221527)
((-64, 0, -2, 0, -13, -2, 2, -3), 1, 45.53175480619832)
((-15, -12, -4, 0, -4, -2, -3, 2), 1, 45.55654000475531)
((-19, -9, 0, -10, -4, -3, -2, 1), 1, 45.586347927876666)
((46, 0, -1, -1, 0, 0, 1, 7), 1, 45.60976811308286)
((-5, -11, -2, -8, -3, -5, -5, -4), 1, 45.636933817379)
((14, 3, -2, -9, -6, -2, -8, -4), 1, 45.65802538331844)
((-9, -5, -2, -2, -2, 0, -1, -5), 1, 45.68867546379949)
((21, 5, -6, -10, 0, -2, -1, -4), 1, 45.72684167042511)
((12, 6, 0, -8, -5, -3, 0, -1), 1, 45.750132424540816)
((-21, -6, 0, -3, -3, -2, -3, -4), 1, 45.77250404685976)
((19, 0, -2, -5, -4, 0, 0, -1), 1, 45.79257441860067)
((5, -3, -1, -13, -3, 0, 1, 0), 1, 45.81302681162189)
((6, 10, 3, -11, -4, -3, 4, -7), 1, 45.83578786757432)
((-14, 13, -2, -6, -6, -2, -8, -19), 1, 45.85979933049345)
((22, -2, 1, -10, -1, 0, 1, 8), 1, 45.87902013252147)
((16, 15, 18, 11, 9, 2, 3, 6), 1, 45.90021033977657)
((-16, -25, 11, 3, 2, 1, -2, -4), 1, 45.921507741062555)
((19, 74, -20, -16, -9, -5, -6, 3), 1, 45.94682320796383)
((10, -4, 8, 14, 12, 2, 3, 4), 1, 45.967899379015854)
((5, -34, -3, -2, 4, 5, -1, -12), 1, 45.98878739033281)
((5, -1, -9, -6, -12, -12, -4, 1), 1, 46.009169080908116)
((6, -3, -5, 5, 3, 4, 4, -1), 1, 46.03491560465701)
((-2, -4, -7, -2, -9, 0, 0, 4), 1, 46.05729235860509)
((2, -8, -2, -2, -3, 0, 1, 2), 1, 46.078920464879985)
((-2, -4, -1, -2, -1, -2, 0, -6), 1, 46.10185257513703)
((-1, 3, 63, 2, -4, -19, -21, 2), 1, 46.12858266113743)
((-1, -3, -15, -1, 3, 15, 4, 3), 1, 46.15168126425096)
((0, 0, 1, 18, 7, 7, -1, -3), 1, 46.174303196035645)
((0, 1, 5, -6, -3, -10, 2, -1), 1, 46.194738483626395)
((1, 3, 2, -3, -5, -6, -2, -5), 1, 46.2172686162676)
((-1, 0, -6, 8, -7, -1, 3, -1), 1, 46.24001142642755)
((-3, -5, -4, -5, 4, 2, 0, 1), 1, 46.261092158927696)
((-9, -5, -4, -3, -4, 0, -3, -4), 1, 46.28062599033315)
((18, -40, -10, -6, -8, -1, 0, 8), 1, 46.30273932065213)
((-12, 7, 6, 3, 2, 2, 3, 7), 1, 46.3240623800838)
((18, 22, 7, 5, 5, 5, 8, -21), 1, 46.349208503223515)
((-17, 2, 10, 0, 1, 0, 21, 45), 1, 46.36944536782092)
((10, -61, 7, 30, 7, 1, 26, -91), 1, 46.38916963968551)
((-31, -7, 88, 2, -32, -42, -79, -34), 1, 46.41084678152773)
((36, 2, -1, -102, -7, 13, -40, 90), 1, 46.43321783366565)
((-40, 7, -17, 44, 14, 2, -24, -51), 1, 46.455055196373195)
((-111, -48, 28, 75, -13, -24, -68, -23), 1, 46.47558570419351)
((16, -28, 31, 17, 6, -2, -1, 21), 2, 46.54480967072617)
((22, -2, 28, 21, 10, 6, 1, 15), 2, 46.56844937562328)
((37, 15, 11, 14, 6, 5, 8, -20), 2, 46.590172702127745)
((-17, -50, -70, -9, 0, -7, -3, -15), 2, 46.610604568632404)
((-7, -40, -30, 1, -4, -3, 0, 10), 2, 46.632957374977835)
((7, 5, 30, 0, -1, -7, -5, 9), 2, 46.65798204956128)
((3, 23, -13, -7, -1, 1, 1, 0), 2, 46.6864717141751)
((9, -2, -6, 5, 1, -1, 1, 34), 2, 46.71034405292648)
((17, 40, -50, -21, -17, -11, -7, -31), 2, 46.72934647562562)
((0, -7, 1, 45, 2, -2, -3, 6), 2, 46.75046883133989)
((-65, -22, -54, -5, -3, 5, -8, -62), 2, 46.77075359114258)
((41, -7, -18, -1, 2, 0, 5, 7), 2, 46.79317139812376)
((27, 2, -46, 4, -4, -7, -3, 19), 2, 46.8131459794541)
((1, -7, -40, -12, -6, -5, -2, -3), 2, 46.832784153985365)
((-6, 11, 10, -4, -2, -2, -4, -28), 2, 46.853362557010975)
((-12, 1, -32, -5, -5, -4, -6, -52), 2, 46.877756041210404)
((-21, 2, -7, 7, -5, 0, 1, 8), 2, 46.89968862414751)
((-4, -8, -26, -14, -2, -1, 0, 13), 2, 46.9219918247446)
((-21, 2, 20, 19, -1, -2, -7, -41), 2, 46.94292545054278)
((14, 0, -9, -15, -1, -1, 1, 8), 2, 46.97001931203099)
((-7, -12, -12, -8, -1, 0, 0, 25), 2, 46.9911986858468)
((5, 8, -6, 1, 0, 2, 2, -7), 2, 47.010396110453186)
((0, 14, 8, -2, -6, -2, -1, 6), 2, 47.03411278978737)
((2, 9, -39, -4, 4, 2, 3, -14), 2, 47.05822004311709)
((33, 26, 66, 27, -2, 1, 2, 13), 2, 47.07899686913604)
((4, -5, 31, -15, -3, 0, -2, 6), 2, 47.10099616325195)
((-4, -2, 7, 3, 2, 1, -1, -18), 2, 47.125220303689815)
((-3, -7, -30, -5, -2, -2, 2, 1), 2, 47.14531234230931)
((-1, -6, -9, -4, -1, -4, -2, -4), 2, 47.1683351113478)
((-2, -6, -12, -2, -2, 1, 1, -17), 2, 47.191685164289105)
((8, 7, 32, 3, 0, -1, -1, -34), 2, 47.21054732245846)
((-5, -3, 3, 5, 2, 3, 0, -5), 2, 47.23253806385913)
((1, -5, 5, 20, -7, 0, 0, 5), 2, 47.253007562310806)
((17, -12, -6, -3, -4, -3, -1, 44), 2, 47.27650871322118)
((-1, 1, 40, -20, -2, 3, 1, -14), 2, 47.29569929565539)
((-2, 5, 19, 3, 0, -3, 0, -14), 2, 47.319748960702555)
((2, -3, -2, -4, -7, -1, -2, 4), 2, 47.342011678447555)
((-1, -2, -12, -2, 0, 6, 3, -3), 2, 47.36821149610367)
((17, 0, -50, -6, -1, 0, -1, 0), 2, 47.3893994226347)
((3, 3, 21, 20, 7, 5, 4, 4), 2, 47.40661603839371)
((-1, -4, 12, -3, 0, -1, -1, 2), 2, 47.429422708827374)
((-6, -13, -14, -21, -8, -6, -2, 3), 2, 47.4533634693006)
((-6, -13, -14, -21, -8, -6, -2, 3), 2, 47.46233127631029)
((-10, -8, -24, -6, -3, -1, -3, -5), 2, 47.503421941363726)
((2, 5, 16, 6, 3, 5, 0, 11), 2, 47.541315601464)
((-3, -4, 7, -4, -2, -1, -2, 9), 2, 47.58441444405355)
((3, -7, 5, -16, -7, -5, -3, -1), 2, 47.616855463103875)
((-4, 4, 5, 7, -2, -3, -1, -12), 2, 47.64087661910027)
((-3, -2, -40, -21, -2, -1, -2, 1), 2, 47.672529647987346)
((-5, -3, -79, -29, -4, -5, -2, -3), 2, 47.71493572064323)
((-4, 4, 20, 3, -2, 1, 1, -2), 2, 47.73924994968152)
((1, -11, 18, 5, 2, 0, -1, -2), 2, 47.76551818905948)
((-2, -12, 2, 12, -1, 0, 1, -2), 2, 47.792658235209935)
((30, 9, 2, 0, -3, -3, 2, 73), 2, 47.818706954896975)
((7, 6, 22, 16, 1, 2, 4, 8), 2, 47.8423101682091)
((0, -3, 6, 1, -3, -4, -1, 5), 2, 47.86579478387004)
((-10, 0, 2, -10, 0, -3, -2, -7), 2, 47.892681099468646)
((-8, -8, 26, 32, -4, -1, -1, -13), 2, 47.91560522719148)
((-1, 1, 9, 5, 0, 0, -1, -2), 2, 47.93769917135593)
((-4, -1, 4, 11, -1, 1, 1, -5), 2, 47.95946412107452)
((4, -3, 3, 0, -3, -1, 0, 2), 2, 47.98903541907449)
((11, -3, 0, 12, 2, 0, 0, 2), 2, 48.0146673364393)
((1, -1, 25, 10, -3, 2, -1, -1), 2, 48.0377944486036)
((-14, 11, 12, 23, -1, -4, -1, -5), 2, 48.061384547752375)
((0, -1, 8, -7, 1, -2, -1, -1), 2, 48.09396982259958)
((-2, -7, 8, -2, -2, -3, -5, 2), 2, 48.11765856306402)
((2, 3, -6, 2, 3, 0, -1, 3), 2, 48.14111352931215)
((1, -6, 0, -5, -1, 0, -1, -4), 2, 48.164407704513955)
((0, 2, 9, -3, 0, 0, -1, -3), 2, 48.18938562425413)
((18, 26, 14, 0, 4, 1, 2, 1), 2, 48.21083925513833)
((9, 9, 19, 1, 0, 0, 0, -1), 2, 48.238965714445364)
((-12, -30, -93, -47, -12, -6, -5, -7), 2, 48.261766112887855)
((-1, 1, -13, -7, -3, -2, -3, -3), 2, 48.28882234242905)
((-2, -3, 11, 7, -4, -2, -3, 0), 2, 48.311038875511805)
((-3, -8, -15, -4, -2, -1, 0, 1), 2, 48.33401774061211)
((4, -1, 3, 1, 2, 1, 0, 3), 2, 48.357391741156064)
((-3, -5, -8, -14, -1, -1, -2, -4), 2, 48.382907341593736)
((0, 8, 40, 4, -1, -1, 1, -4), 2, 48.41015116068898)
((0, 1, 10, 1, 0, -1, 0, 1), 2, 48.435044693638886)
((6, 2, -17, -5, 3, 0, 0, -1), 2, 48.45970388219148)
((3, -2, 3, 3, -1, 1, 0, -1), 2, 48.48593220889836)
((-4, -3, -53, -32, -4, -1, -1, -2), 2, 48.506843597636944)
((-2, 1, 21, 18, -6, -3, -3, -1), 2, 48.52792318977506)
((0, -2, 5, -4, 0, 0, 1, -2), 2, 48.55103775795702)
((-2, -4, 3, 3, -1, 1, 0, -2), 2, 48.57362433851875)
((-3, -7, -19, -5, -3, -3, -2, 0), 2, 48.60020959854125)
((0, -1, 1, 3, 0, -1, 0, -1), 2, 48.624849971120334)
((3, 4, 63, 30, 5, 2, -1, 0), 2, 48.64894468046771)
((3, 1, 13, 1, 4, 1, -1, 0), 2, 48.68040042672347)
((-2, -3, -19, -10, -3, -3, -1, 0), 2, 48.708199602127685)
((-1, -3, -18, -9, 0, -1, 0, 0), 2, 48.737026243721594)
((-4, -6, 2, 0, 4, 1, -2, -2), 2, 48.75979813311332)
((1, 3, 1, -3, 0, -2, 1, -2), 2, 48.78585084406747)
((0, 6, 2, -10, 1, 1, 2, 0), 2, 48.80939703927806)
((1, -1, -15, -8, 2, 4, 0, -1), 2, 48.83519544949935)
((1, -1, 6, -19, -2, 0, 0, 0), 2, 48.85734755212737)
((-1, -2, -8, -13, -9, -2, -1, -1), 2, 48.88354109779232)
((-4, -16, -79, -14, -15, -2, 0, -2), 2, 48.9086934929232)
((3, 3, 14, 7, -7, -10, -5, 1), 2, 48.93236854904327)
((10, 1, 8, 50, 30, 9, 6, 3), 2, 48.95551789826716)
((36, 6, 7, 2, 13, 9, 5, -4), 2, 48.98169433850165)
((52, 6, 3, -1, 4, -1, -11, 0), 2, 49.00774990036087)
((-25, -26, -19, 44, 18, 3, -9, -20), 2, 49.03125333199531)
((5, -40, -51, -19, -12, -22, -8, 30), 3, 49.17273975969151)
((-43, -6, -36, -45, -13, -21, 19, -63), 3, 49.19785053160827)
((7, 21, 23, 17, -6, -10, -18, 33), 3, 49.22335187752056)
((15, 10, 3, -9, 0, 1, -2, -6), 3, 49.24831953400246)
((-5, 3, 23, 3, -1, -4, -3, -8), 3, 49.71933352681476)
((-36, -5, 13, -20, 1, -1, -7, -32), 3, 49.740963913813715)
((12, 6, 8, 24, 1, 2, -3, 14), 3, 49.764180544397426)
((-4, 2, -5, -6, 0, -1, -2, -6), 3, 49.78439346139219)
((10, 7, 24, 33, 2, 4, -18, -26), 3, 49.8060033218746)
((-64, -9, -12, -5, -1, 0, -3, -28), 1, 49.91643541074985)
((18, -3, 1, -4, -6, -1, 12, 31), 1, 49.938563565775226)
((12, 5, 33, 30, 3, 5, 11, 38), 1, 49.95781857866417)
((-11, -2, 2, 11, -5, -4, -26, -43), 1, 49.97943414095673)
((7, 11, -18, -11, 1, 2, -7, 5), 1, 49.99822901776627)
((41, 10, 28, 49, 8, 0, 7, 9), 1, 50.02026708419122)
((-4, 8, 34, 16, 2, 0, -4, 6), 1, 50.04160781923437)
((3, 5, -8, -5, 0, -2, 0, 19), 1, 50.06152709300622)
((-5, -7, -36, -20, 0, -4, -22, -34), 1, 50.08066806969209)
((-4, -1, 7, 10, -1, 1, -14, -1), 1, 50.1023856943864)
((-4, 4, -2, 8, 8, 8, 15, -15), 1, 50.12498938037859)
((1, -1, 18, 10, -4, -4, 1, 12), 1, 50.14851961052075)
((1, -2, -21, 7, -4, 1, -4, -4), 1, 50.16927362929909)
((-4, -8, -12, -15, -3, -2, -6, -22), 1, 50.1910727898786)
((-12, 0, 14, 15, -1, -4, -20, -21), 1, 50.215054603384935)
((11, 0, -15, -15, -3, -3, 22, 30), 1, 50.238250707452096)
((35, 6, -47, -32, -8, 0, -25, 13), 1, 50.26146790821682)
((-7, 5, 59, 9, 4, 4, -1, -9), 1, 50.28211416278326)
((-12, 1, -14, 21, 2, -3, 0, -10), 1, 50.30338305501848)
((8, 1, 15, -18, -7, -1, -2, -2), 1, 50.32368720097569)
((4, -1, 18, 14, 5, 2, -12, -10), 1, 50.347461468592435)
((-57, -7, 22, 10, 4, 5, 10, -3), 1, 50.369165979123395)
((4, -1, -3, 14, -1, -3, 6, -10), 1, 50.38849169445824)
((-15, -4, -28, 0, -2, -2, 5, 11), 1, 50.40821938740892)
((16, 7, 23, 8, 0, 2, 3, -3), 1, 50.42959091222691)
((-3, -2, 12, 11, 2, -2, -7, -5), 1, 50.45068646943345)
((-4, -3, 22, 35, 8, 1, 5, 5), 1, 50.46943516158075)
((13, -4, -19, -19, 1, 1, 4, -7), 1, 50.49065843933474)
((12, 2, 3, -2, -4, 1, 2, -11), 1, 50.51171237332716)
((-1, 2, 18, -12, -1, 7, -7, 6), 1, 50.53217274888259)
((-11, -7, 2, 6, -3, -7, -2, 37), 1, 50.554072261320805)
((-3, -5, -63, -3, -5, -4, -27, -18), 1, 50.57536453097765)
((0, 1, 18, 21, -1, -7, 8, -15), 1, 50.59615162025488)
((-11, 3, 12, 4, 6, 5, 6, -14), 1, 50.616692961514495)
((7, 4, 28, 7, 1, -1, -13, -15), 1, 50.63948195633668)
((-1, 4, -8, -19, 0, 2, 7, 13), 1, 50.67153753302061)
((-3, -4, -9, -1, -4, -4, -11, -15), 1, 50.69847003328147)
((39, 5, 44, 26, 1, -5, -11, -6), 1, 51.37300443771884)
((3, -2, 16, 22, 1, -4, -6, -6), 1, 51.39458008734033)
((-12, -5, -28, -25, -6, -2, -4, -8), 1, 51.41554450291334)
((7, 6, 17, 9, 0, -2, 10, 4), 1, 51.43529671364768)
((18, 1, -12, -4, -3, -4, -2, 17), 1, 51.4594746694233)
((20, 5, 33, 4, 4, 4, -5, -25), 1, 51.482158180757644)
((-13, -19, -8, -8, -5, -3, -23, -3), 1, 51.501887014070356)
((2, 37, 52, -5, -7, 22, 1, -27), 1, 51.52215808952868)
((60, 14, 12, 29, 11, 2, 7, 15), 1, 51.546128499414706)
((-13, -1, -25, -12, -2, -4, -9, -12), 1, 51.56963592231626)
((-12, -2, -10, -1, -2, 4, 1, -13), 1, 51.588629222119145)
((-7, -5, -33, -13, -2, 6, -1, 14), 1, 51.6107528156964)
((-8, -9, -23, -12, -5, -5, -20, -31), 1, 51.63123029668229)
((53, 1, 29, 14, -6, -5, 3, 38), 1, 51.652649146524546)
((-6, -3, -11, 4, 1, -4, 2, 6), 1, 51.67977493814961)
((-3, -8, -12, 2, 0, 1, 3, 13), 1, 52.77720461915044)
((-10, 3, -61, -42, -2, -1, -7, 21), 1, 52.79993659587109)
((3, -1, 51, 30, 4, 1, 6, -47), 1, 52.84250402975432)
((-3, 12, 31, 4, -3, -3, -14, 9), 1, 52.86572351124311)
((-7, -2, -33, 17, -1, -3, 10, 1), 1, 52.88568326786705)
((-7, -15, 19, -5, -3, -2, -17, -29), 1, 52.90645952370499)
((33, 6, 42, 15, 2, 4, 2, 20), 1, 52.92657208884104)
((1, -2, 33, -26, 1, -1, -5, -20), 3, 53.032555625434405)
((6, 18, 37, 23, 13, 5, 3, -4), 3, 53.05560063153249)
((-11, -7, -7, 11, -5, -1, 16, 21), 3, 53.07656219620043)
((9, 25, 50, 28, 6, 1, -12, 11), 3, 53.099062109247825)
((-13, -55, -54, -26, -5, -3, -1, 6), 3, 53.12404573079816)
((6, 5, 1, 5, 3, 4, 10, 10), 3, 53.145182911218825)
((-4, -3, -64, -79, -9, -6, -9, -8), 3, 53.16470305827991)
((3, 25, 55, 27, 8, 4, 10, -11), 3, 53.18430873249331)
((-4, -3, 0, 17, 3, 2, -4, 34), 3, 53.20850892532852)
((24, -3, -15, -1, -9, -5, 5, 13), 3, 53.23182362704688)
((1, -13, -4, -21, -1, 0, -7, -11), 3, 53.2519088234942)
((-6, 5, 68, -6, 2, 0, 18, -4), 3, 53.27402557489926)
((-2, 0, 34, 0, 0, 2, 1, -2), 3, 53.29575232248982)
((-11, -8, -91, -55, -9, -6, -2, -19), 3, 53.31863083573142)
((4, 4, 74, 15, -1, -3, -17, -3), 3, 53.339505162704)
((-3, 12, 40, 28, 5, 5, 2, -4), 3, 53.35994615210491)
((-7, 0, -9, 8, 7, 2, -10, 15), 3, 53.382962649152226)
((4, -18, -50, -9, -10, -4, 15, -10), 3, 53.406772838172934)
((13, 58, -34, 19, 5, 3, 3, 3), 3, 53.42772927121173)
((2, 5, -13, 0, 1, 2, 20, 15), 3, 53.45600682848784)
((25, 0, -17, -8, -1, 2, -8, 33), 3, 53.47711664021977)
((5, 10, 26, -3, 3, 2, 0, -9), 3, 53.49835873394726)
((-9, -8, -38, -8, 0, -2, -14, -12), 3, 53.525654439514916)
((-9, -24, 21, 0, -3, 0, 20, 18), 3, 53.547923429251085)
((4, 2, 3, 2, 2, -1, 9, 12), 3, 53.57065939723884)
((-8, 3, 8, 1, 1, -1, -4, -16), 3, 53.592273248988356)
((-1, -24, 16, 6, -5, -3, -2, 0), 3, 53.61703164903762)
((-5, -12, -51, -7, -4, 0, -5, -3), 3, 53.63623363509213)
((-9, -7, 14, -20, -3, -2, -17, -24), 3, 53.6618900702406)
((-10, -29, -89, -46, -7, -5, -8, -10), 3, 53.68203855678062)
((18, -3, 19, 12, -2, -1, -3, 21), 3, 53.70480246363813)
((1, 8, 10, 14, 5, 3, 3, 10), 3, 53.72910871014221)
((-4, 8, 42, 26, 5, 2, -15, -21), 3, 53.749140879755096)
((-1, -6, 25, 22, 2, 2, 14, 13), 3, 53.76871405365061)
((-6, 27, 13, 0, -2, -4, 8, 16), 3, 53.78835964053508)
((12, 6, 116, 22, 1, 0, 6, 11), 3, 53.812196057882495)
((-9, -24, -35, -30, -11, -4, -10, -17), 3, 53.831875855627885)
((-17, -4, -68, -28, -9, -2, 12, 4), 3, 53.854991564171875)
((-7, -7, -12, -11, -5, -3, 3, -30), 3, 53.87559790606724)
((5, 3, -42, -12, 1, 3, 2, -5), 3, 53.89555253106204)
((-6, -26, -69, -50, -4, -4, -5, 1), 3, 53.92289898274005)
((1, -3, 20, -15, 0, -2, -3, 2), 3, 53.94324304136834)
((3, 10, 23, 4, 1, 3, 5, -3), 3, 53.96406092042041)
((-5, -2, -11, 5, -1, -2, -4, 1), 3, 53.98854791430635)
((-4, -12, -87, -19, -7, -3, -10, -17), 3, 54.009463864493064)
((-1, -4, 28, 16, 1, 1, 11, 3), 3, 54.033551731668254)
((9, 11, 127, 42, 9, 4, 2, 10), 3, 54.05632019997388)
((-4, -10, 20, 14, -3, 0, 1, -8), 3, 54.07677088245205)
((-1, -1, -10, -4, 0, 0, -2, 25), 3, 54.0983528040647)
((-20, -32, -61, -42, -13, -6, -2, -11), 3, 54.12144741591113)
((-2, 3, -56, -17, -2, 1, -8, -4), 3, 54.14329447169593)
((-3, -3, 65, 20, 3, -1, -7, -11), 3, 54.16485985805914)
((-5, -6, 0, -32, -6, -3, 2, 6), 3, 54.18484242192369)
((-4, -3, 9, 15, 1, 0, -2, -2), 3, 54.205496088843326)
((3, 2, 4, 9, 2, -4, -4, -19), 3, 54.22915061844684)
((-3, 3, 36, 2, 0, -1, 3, 0), 3, 54.2489296276889)
((3, 1, -5, 13, 5, 3, 2, -1), 3, 54.27171349088195)
((-5, -1, 0, 4, -8, -4, -8, -8), 3, 54.29397620862695)
((-4, -12, 5, -39, -4, -2, -13, -5), 3, 54.314962861259566)
((-3, -1, 61, 9, -1, -2, 0, -1), 3, 54.34164277133061)
((2, -16, -67, -18, -9, -3, 9, 35), 3, 54.369928881321954)
((-1, -17, -16, -6, -1, -1, -1, -5), 3, 54.39754103735313)
((-1, 8, 31, 8, -2, -3, -10, -4), 3, 54.42190772304483)
((-7, 7, 8, 5, 2, 1, -4, -20), 3, 54.44477084139902)
((-9, -7, -30, -22, -9, -6, -3, -18), 3, 54.46545472791247)
((3, 7, 28, -2, 0, -1, 0, 7), 3, 54.48727726591361)
((1, 9, -1, 12, 3, 2, 8, 21), 3, 54.50736018163686)
((2, 7, 13, -19, -1, -3, 0, -17), 3, 54.532586700299746)
((-1, -2, -24, -35, -1, 0, 4, 3), 3, 54.553644055378264)
((-4, -4, -3, -15, 0, 0, -15, -31), 3, 54.57258660907078)
((-6, -23, -34, -22, -7, -4, -3, -5), 3, 54.594096117694484)
((1, 3, 16, 28, 2, 0, 5, 3), 3, 54.61594032257421)
((-10, -24, 23, -11, -10, -5, -8, -10), 3, 54.63839747204545)
((-2, 1, 7, 5, 0, -3, -5, 6), 3, 54.66044694209071)
((0, -8, -7, -22, -5, -1, 14, 16), 3, 54.69144255226707)
((5, 13, 39, 20, 6, 3, 3, -7), 3, 54.713751454674316)
((-1, 0, 12, 4, 3, 2, -2, -4), 3, 54.74214703942061)
((3, 4, 5, 6, -1, 0, 0, -5), 3, 54.760949328583344)
((-5, -9, -15, -4, -4, -2, -7, -12), 3, 54.78357810254021)
((0, 7, 17, 10, 0, 1, -2, 6), 3, 54.806968638333615)
((-6, -9, -21, -23, -6, -2, 6, -5), 3, 54.827586954030295)
((1, 0, 16, 5, 0, 0, 1, 2), 3, 54.84789167016853)
((-2, -2, -10, -6, -2, -1, -17, -37), 3, 54.87071202494656)
((1, 8, 32, 20, 2, 0, 9, 8), 3, 54.8920373651023)
((1, 1, 1, 17, 1, 1, 3, -8), 3, 54.91198514792491)
((-6, -11, -39, -27, -7, -5, -13, 0), 3, 54.930920289264236)
((7, 4, 11, 14, 8, 2, 4, 30), 3, 54.95359467770233)
((4, 9, 13, 9, 0, 1, -7, -17), 3, 54.97481396418921)
((-4, -8, 27, 7, -5, -3, -4, 4), 3, 54.99583026623462)
((-5, -5, -21, -2, -7, -6, -6, -18), 3, 55.01548326547229)
((4, 0, -16, 12, 4, 1, -4, 1), 3, 55.03775852719963)
((0, 2, -68, -8, -1, -1, -2, 4), 3, 55.05898522603971)
((3, 12, 43, -17, 3, 1, -2, -1), 3, 55.07904476434133)
((-7, -16, -105, -38, -7, -3, 2, -8), 3, 55.10090607465152)
((0, -3, 0, 6, -2, -1, -1, 5), 3, 55.125029293049664)
((-3, -12, -33, -1, -2, -3, 1, 0), 3, 55.14706849983664)
((4, 3, -32, -7, -1, 1, -2, -2), 3, 55.18003066433501)
((1, 0, -20, -17, -3, -2, 9, 16), 3, 55.21125263637447)
((-4, -18, -33, -21, -3, -3, -1, 4), 3, 55.23962655424218)
((-1, 0, -33, -58, -7, 1, 12, 10), 3, 55.27037413567685)
((-1, 4, -53, 3, 2, -2, 0, 2), 3, 55.297662999072315)
((-2, 0, 6, 6, -4, -2, 0, 3), 3, 55.326692054926674)
((0, -2, 11, -12, 6, 1, -5, -6), 3, 55.37183841754242)
((1, 5, 18, 9, -2, -3, 3, -3), 3, 55.39640352622747)
((1, 4, 75, 36, -8, -4, -4, 6), 3, 55.43080482760862)
((-1, 8, 14, 13, 1, -2, -9, -52), 3, 55.47255975354496)
((0, 4, -7, 19, -6, -2, 6, 0), 3, 55.502885401028266)
((-3, -8, 22, 10, -6, -3, 1, 4), 3, 55.52944272218101)
((-2, 0, 6, 14, 3, 3, 3, 3), 3, 55.55488819035379)
((0, 4, 15, 1, 0, -1, 1, 8), 3, 55.57611032774575)
((-3, -12, -7, 1, -5, -3, -1, -6), 3, 55.59718022680661)
((-1, -3, -5, 4, -1, -2, 1, 2), 3, 55.619018729876174)
((-1, 2, -9, -5, -3, -2, 7, -11), 3, 55.64091311068525)
((-6, -16, -59, -33, -6, -1, -5, 7), 3, 55.666400202072154)
((1, 8, 6, -1, 6, 4, -1, 0), 3, 55.691278340134645)
((1, -1, 2, 8, 0, -1, 0, 5), 3, 55.720118095891905)
((-2, 0, 3, -16, -1, -1, -2, 0), 3, 55.74303880252864)
((1, -3, 5, 4, -2, 1, -1, 2), 3, 55.765857446763626)
((-1, -1, 0, 3, 5, -2, -1, -1), 3, 55.78708243506066)
((0, -1, -10, -23, -8, -2, -2, -2), 3, 55.806391044965046)
((0, -3, -9, -24, -14, -7, -7, -1), 3, 55.8281103802024)
((-3, 2, 12, -1, -2, -5, -1, -4), 3, 55.851371484905314)
((0, -9, 13, -2, -1, 2, 10, 4), 3, 55.87354240350684)
((-1, -1, -13, -1, 1, 0, 2, 2), 3, 55.893843128377966)
((39, 20, -18, 0, 5, 7, 10, 31), 1, 56.17666260507723)
((40, 24, 1, 0, -6, 3, 14, 19), 1, 56.197034032394264)
((51, 23, -13, -3, -2, -2, -6, -4), 1, 56.21862336636012)
((-2, 41, 29, -39, -5, 2, 10, 7), 1, 56.23851356090018)
((43, -57, 6, 14, 10, 6, 7, 9), 1, 56.25839919399212)
((20, 23, 2, -10, -1, 0, -3, -4), 1, 56.281010292337506)
((16, 25, 1, -18, 6, 6, 5, 5), 1, 56.302542608201826)
((-6, -6, -19, -11, -17, -7, 9, 5), 1, 56.324189530450234)
((12, 1, -1, 9, 4, 5, 2, 8), 1, 56.34448626405425)
((17, 13, -18, 8, -1, -6, -15, -5), 1, 56.368880888615706)
((-2, -12, -11, 4, 6, 0, -12, -20), 1, 56.39255765527882)
((-20, -8, -6, 2, -6, -3, -6, 10), 1, 56.41262403575263)
((-26, -4, -7, 1, -4, -5, -5, -3), 1, 56.43556526890592)
((-10, -6, -6, -10, -4, 1, 3, 6), 1, 56.457569694650964)
((27, 42, -1, -23, -9, 2, 6, 10), 1, 56.480724175503994)
((-8, -32, -4, 8, 4, -3, -3, 0), 1, 56.50347895946526)
((-8, -38, -7, 0, -3, -3, -9, -22), 1, 56.52510421483508)
((10, 14, 1, 2, 1, 6, 9, 18), 1, 56.544790854752655)
((11, -14, 6, 0, 1, -6, 0, -3), 1, 56.56662422619309)
((10, 7, -1, 8, -1, 0, 5, 6), 1, 56.59087858622477)
((-19, 9, 7, -44, -16, -1, 0, 24), 1, 56.89002006466993)
((7, -3, 1, -6, -1, 0, 5, 2), 1, 56.9107011002783)
((0, -3, -4, -1, -1, -1, -1, -3), 1, 56.93080568288014)
((-36, -8, -5, 6, 4, -4, 2, -13), 1, 56.95342191285467)
((13, 0, 1, 5, 0, -1, -3, -8), 1, 56.97593722078948)
((-3, 6, -2, 4, -1, -3, -4, 4), 1, 56.998677180044346)
((-1, 7, 5, -3, -1, 2, 4, 9), 1, 57.01961137602355)
((-5, 1, 1, 0, 0, 1, -4, -5), 1, 57.03896845131424)
((2, -11, -1, 6, -7, -3, 1, -1), 1, 57.059784619823255)
((7, 6, 3, -17, -9, -6, -1, 4), 1, 57.07941310127726)
((31, 3, 0, 6, 2, 0, -4, 2), 1, 57.10041058734917)
((-15, -12, 3, -5, -4, -1, 3, -4), 1, 57.12562741293478)
((-29, -7, -11, 3, 3, 0, 2, 5), 1, 57.14523080642412)
((20, 3, 3, 1, 0, -1, -3, -4), 1, 57.16829120740962)
((36, 2, -1, -1, -1, -1, -3, -2), 1, 57.19077629575061)
((-17, -1, 4, -1, -6, -2, -3, -4), 1, 57.216080929212595)
((16, 2, 3, -2, -5, -6, -5, 5), 1, 57.23787039671485)
((-20, -24, 2, -15, -2, 0, 3, 13), 1, 57.25667895786876)
((31, -3, 1, 5, 0, -1, -3, -2), 1, 57.27737880945064)
((13, 13, 1, -20, -9, -1, 8, 8), 1, 57.304177317172886)
((1, -7, -4, 1, 1, 0, 6, 3), 1, 57.32448944566431)
((24, 11, 0, 9, -3, -1, -7, -2), 1, 57.352623887505565)
((-11, -11, 0, -12, -1, -1, 2, 1), 1, 57.37490028959494)
((40, -1, -3, -15, -4, -1, -2, 2), 1, 57.396731950492324)
((-14, -8, 3, 1, -1, 0, -5, -2), 1, 57.41924668824612)
((11, 6, 1, -5, -3, 1, 1, 0), 1, 57.43927942804002)
((-19, -7, -2, 2, -2, -1, -17, -19), 1, 57.458557248169576)
((15, 7, 1, -7, -2, 0, 1, -1), 1, 57.48096593225451)
((-26, -9, -10, -2, -3, -4, -2, -11), 1, 57.50475559475867)
((26, 0, 2, 0, 4, 1, 5, 2), 1, 57.52548566593436)
((6, -2, -5, 1, 2, 0, 6, 10), 1, 57.55221917302086)
((25, 6, 3, -5, 2, -1, -2, 4), 1, 57.57214072751677)
((-7, -10, -8, 7, -3, 2, 1, -3), 1, 57.594832221385325)
((10, 1, -1, 7, 4, 1, -2, -1), 1, 57.621404367244466)
((-3, -33, 3, 5, 3, -2, -4, -5), 1, 57.64044328152859)
((43, -2, 0, 5, 4, 0, 5, 7), 1, 57.66276130683208)
((0, 2, 2, -11, -2, -1, 9, 2), 1, 57.69320156069948)
((-51, 4, -1, -21, -10, -2, 0, -20), 1, 57.72582047622659)
((-44, 7, -4, -3, -4, 0, 9, 12), 1, 57.74502930445328)
((-2, 3, 4, -2, 6, 3, -2, 4), 1, 57.767734482666214)
((43, 4, -4, 2, -5, 0, 4, 3), 1, 57.79017566706902)
((-35, -10, -2, 3, -2, 1, -3, -4), 1, 57.81134705835061)
((31, -9, 3, 0, -1, 0, -1, 0), 1, 57.83124124415778)
((16, -14, -4, 0, 0, -1, 1, -6), 1, 57.85231456430473)
((24, 5, 3, -5, -6, -2, -3, -1), 1, 57.872153442553405)
((7, -7, 1, -9, -7, -4, 3, 2), 1, 57.89150082476684)
((13, 10, 0, -3, -1, -1, -4, -6), 1, 57.91558926212305)
((-5, -1, 1, 2, 4, 2, -3, -4), 1, 57.93521318212893)
((-27, -3, -2, -5, 9, 2, 0, 0), 1, 57.95477210149906)
((0, -29, 2, -1, -5, -1, -1, 1), 1, 57.974989009760925)
((-10, 2, -4, 0, -2, -2, -4, -7), 1, 57.99898621815468)
((-21, 5, 0, -5, -2, -1, -5, -11), 1, 58.019607954937456)
((-26, -9, -1, -10, -1, -1, -8, -5), 1, 58.040993734280825)
((-12, 3, -3, 10, -5, -5, -3, 1), 1, 58.06058116270172)
((-25, 4, 0, -7, -2, -1, -3, 1), 1, 58.08275151112223)
((32, -1, -1, -1, -1, 0, 6, 1), 1, 58.098729123534845)
((18, 1, 0, -2, 0, 0, 2, 0), 1, 58.125150741605935)
((-11, -40, -4, -6, -6, -2, -3, -3), 1, 58.14376772193869)
((42, 0, -6, -8, -6, -1, 2, 6), 1, 58.16706018659744)
((0, 2, 0, -8, -3, -3, -1, -1), 1, 58.18865978382157)
((2, -5, 3, -1, 1, 2, 4, -3), 1, 58.20915779132401)
((14, 8, 1, 0, -4, 1, 3, -1), 1, 58.23113256765625)
((1, 2, -2, 15, -7, -2, -3, 0), 1, 58.25047253751649)
((2, 4, 1, -15, -4, 0, 3, 0), 1, 58.270070799376676)
((-3, 1, 7, 2, 3, 2, 0, 1), 1, 58.29411590297572)
((-6, 0, -3, 4, 3, -8, -3, -1), 1, 58.314704569259604)
((-7, 4, -1, 3, 0, 7, -3, 0), 1, 58.336113155843584)
((3, 1, 1, 1, 0, 1, 2, 2), 1, 58.356828402312885)
((-6, 0, -16, -4, -3, 1, 4, -4), 1, 58.3761455649325)
((0, 3, 11, -1, -1, -8, -3, -2), 1, 58.40062115519814)
((-9, -9, -21, 18, 2, 2, -3, -3), 1, 58.422630142391306)
((-6, -7, -39, -35, -6, -2, -5, 0), 1, 58.44303692093129)
((5, -5, -77, -42, -6, 18, 1, -17), 1, 58.46532757754604)
((38, 17, -9, 17, 15, 35, 85, 95), 1, 58.486551425481046)
((5, 11, 62, -71, -12, -27, -4, 94), 1, 58.50470028720018)
((-40, -28, 26, 43, 1, 30, 19, 33), 1, 58.526989233271884)
((-50, -27, 81, 33, 2, 13, -44, -66), 1, 58.549180678389966)
((37, -49, -11, -41, -12, -9, -14, 52), 1, 58.56972144946856)
((-20, 3, 2, -4, 3, -17, -19, -35), 1, 58.58926839503737)
((8, 6, 31, 24, 4, -13, 1, -5), 1, 58.60788594555113)
((3, 13, 7, 22, -6, 1, 6, 29), 3, 58.683950373725146)
((-17, -17, -33, -23, 3, 3, 2, -7), 2, 58.7565840227297)
((4, 22, 8, 17, -3, -3, 1, 0), 2, 58.77775028238215)
((-7, -3, -17, 14, 3, 2, 0, 1), 2, 58.80077875323079)
((14, -10, 19, 11, 0, 2, 1, 6), 2, 58.82302265500228)
((2, -6, -38, -12, -2, -2, 0, -2), 2, 58.84996940978853)
((4, 19, 4, -3, 0, 0, -2, 4), 2, 58.871006808531504)
((-3, 5, 5, -10, 5, 3, 2, -6), 2, 58.890231601826635)
((-6, -8, 97, 44, 4, 1, -1, -8), 2, 58.909939338441774)
((-8, -38, -7, 6, 1, 1, -1, -8), 2, 58.93713640269376)
((16, 56, -9, -2, -4, -3, -1, -2), 2, 58.95683729713672)
((-8, -12, 24, -13, 6, 4, 0, -7), 2, 58.976160731747505)
((0, 0, 2, -5, 1, -2, 1, 0), 2, 58.99953359192943)
((-7, -6, -13, -5, -2, 0, -1, -1), 2, 59.020281908897616)
((3, 4, 0, 1, 1, 0, 0, -2), 2, 59.0429334900951)
((15, 21, 10, -3, 0, -1, 1, 14), 2, 59.063244478224505)
((4, 8, -27, -8, -1, 1, -1, 11), 2, 59.08437709719705)
((-4, -4, -24, -13, 1, 0, -2, -2), 2, 59.10386189303518)
((-4, -7, -19, -27, -4, -1, 0, -3), 2, 59.12604136435194)
((1, -3, -22, -13, 2, 2, -1, -1), 2, 59.15008646795098)
((-5, -9, 22, 16, 2, 1, -1, -2), 2, 59.173069894499406)
((-3, 10, 11, 7, 1, 1, 0, -3), 2, 59.19402347663313)
((5, 19, 83, 43, 8, 4, 2, -5), 2, 59.2171756767621)
((-2, -2, 13, 4, 1, -2, 1, -1), 2, 59.243082421376315)
((1, 6, -7, 10, -3, -4, -2, -2), 2, 59.26987066584029)
((-2, -4, -63, -40, -2, 0, 0, -3), 2, 59.29050608696743)
((-2, -1, -5, -2, 0, 1, 1, 4), 2, 59.31831951689703)
((4, -1, 17, -3, 0, 0, -1, -1), 2, 59.340798903427874)
((-1, -6, -16, -20, 3, 1, 1, 0), 2, 59.36170059908919)
((2, 8, 14, -4, -1, 0, 0, -1), 2, 59.382862867474536)
((10, 15, -1, -4, -2, -3, -1, 1), 2, 59.40379649327272)
((-5, -7, 15, 2, -1, -1, -1, 0), 2, 59.42370721432933)
((-2, -5, -26, 4, -5, -1, 0, 1), 2, 59.44475601669262)
((-2, -1, 44, 18, 2, -1, -1, -1), 2, 59.476334922047705)
((0, 0, 1, 2, 0, 0, -1, -1), 2, 59.49944663932459)
((-3, 3, 8, 4, 1, 1, -1, 1), 2, 59.51958030115821)
((-2, -6, -18, 0, 0, 0, -1, 0), 2, 59.540799017464074)
((4, 11, 66, 36, 7, 3, 1, 2), 2, 59.56456701308964)
((0, 2, 5, -1, 2, 3, 2, 0), 2, 59.585893493607415)
((-3, -3, 43, -12, -3, -2, -1, -1), 2, 59.60583614480089)
((1, 3, 30, -16, 2, 2, -1, 1), 2, 59.63019142687229)
((7, 5, -3, -11, -2, -1, 2, 1), 2, 59.65314919527503)
((1, -2, -24, -9, 2, -2, -2, 0), 2, 59.67884782381863)
((1, 5, -5, -4, 1, -1, -1, 1), 2, 59.69908982004517)
((-4, -3, 9, -1, 0, -1, 0, -1), 2, 59.719236596042144)
((-2, -3, -12, 18, -7, -4, -2, -2), 2, 59.74101180901901)
((-1, -4, 0, 16, 4, 0, -2, 0), 2, 59.76707250250737)
((-2, -12, 3, 0, -1, -2, 0, -2), 2, 59.78806941839826)
((-2, 4, 1, -13, -2, 0, -3, 0), 2, 59.80652104623655)
((3, 4, -11, 5, -1, 0, -1, 1), 2, 59.82877521126632)
((0, 1, 5, 3, 1, -1, 0, 0), 2, 59.848754924225794)
((-1, 2, -16, -4, 2, 0, -1, -1), 2, 59.870343688010635)
((-1, -2, -22, -7, 0, 0, -2, -2), 2, 59.89068717645791)
((2, 5, 21, -2, -1, -2, -2, 0), 2, 59.91039947452118)
((0, -2, -4, 25, 1, 1, -1, 0), 2, 59.92981413809442)
((0, -3, -4, -8, 4, 0, 0, -1), 2, 59.9516492200779)
((-3, -12, -19, -9, 1, -1, -1, -3), 2, 59.9716967845782)
((1, 0, 32, 1, 0, -1, 0, 1), 2, 59.99364875366983)
((1, 1, 15, 21, 5, 2, 0, 1), 2, 60.01570335534422)
((-1, 4, 24, -5, 0, -1, 1, -1), 2, 60.03609644953983)
((0, -3, 12, 0, -3, -3, -1, 0), 2, 60.05714411154109)
((-4, -8, -8, -10, -2, -2, -2, -1), 2, 60.0820598815506)
((-5, -3, -29, -50, -4, -3, -3, -2), 2, 60.10240964198904)
((-3, -11, -2, 2, -2, -2, -2, -2), 2, 60.12360897214039)
((0, 2, 8, 4, 1, 2, -1, -1), 2, 60.14819517752301)
((1, 1, 8, 3, 0, 0, -1, -2), 2, 60.17059359834967)
((2, -2, 24, -6, -1, 0, -1, 1), 2, 60.19038401121204)
((-5, -7, 15, 6, -1, -1, -1, -1), 2, 60.21281265163251)
((-1, 3, -18, -7, -3, -1, -1, -1), 2, 60.23591125474604)
((-5, -6, 5, -1, 0, 0, -2, -3), 2, 60.25711685688856)
((-2, -1, 12, 11, -3, -1, -3, -2), 2, 60.280551866801154)
((-1, -10, -31, -12, -2, -1, 1, -1), 2, 60.30119812136759)
((0, 1, -10, -3, -4, -2, -2, 0), 2, 60.322283985496874)
((2, 2, -7, 6, 0, 0, 0, -1), 2, 60.34275804539667)
((-1, -2, -43, -20, 2, 0, 2, -1), 2, 60.36353772232071)
((2, -2, 15, 7, 3, 0, 0, 1), 2, 60.38658101787575)
((7, 9, -7, -8, -4, -3, -1, 1), 2, 60.41023041585012)
((3, 1, 15, -3, -1, 1, -1, -1), 2, 60.43216242860621)
((-2, 0, -14, 7, -3, -2, -1, 0), 2, 60.45330987228515)
((-2, 2, -2, 0, -1, -2, -2, -1), 2, 60.481350804439884)
((16, 38, 23, 4, -1, 0, 1, 2), 2, 60.502655618079075)
((-6, -15, -11, -1, 1, -2, -2, -3), 2, 60.523788807232634)
((-3, -9, -6, 0, -1, -1, 0, -1), 2, 60.54726372981631)
((0, -5, 5, 3, -3, -1, -2, -1), 2, 60.569083987093386)
((-3, -18, -62, -11, -2, -1, -1, -1), 2, 60.58986936582757)
((1, -5, -4, 6, 1, -1, 2, -2), 2, 60.611190144535186)
((3, -1, -12, 2, -1, -2, 0, -1), 2, 60.633361633317726)
((1, -1, -26, -15, -1, 0, 0, 1), 2, 60.6532261697121)
((2, 2, 9, 14, 1, 1, 0, 0), 2, 60.68162061409636)
((15, 32, -15, 9, -6, -3, 1, 3), 2, 60.70317687756332)
((-4, -7, 14, -7, 0, 0, -2, -1), 2, 60.72295075517624)
((-4, -10, 16, -5, -2, -1, -1, -2), 2, 60.74475732810895)
((-2, -5, 1, -7, 3, 0, -2, -3), 2, 60.764529495178834)
((-5, -1, -75, -73, -5, 0, -1, 0), 2, 60.78822450763444)
((1, -1, -14, -9, 0, 2, 1, 1), 2, 60.8101331429689)
((-1, 1, 27, 12, 1, -1, -1, -3), 2, 60.83135870144695)
((1, -10, -14, 0, -1, 0, -1, -1), 2, 60.85224956366898)
((-4, -8, -9, -3, -8, -4, -2, -2), 2, 60.879791587435264)
((2, 5, 42, 11, 4, 1, 1, 1), 2, 60.90167000317591)
((0, -2, 0, 0, -3, -2, -2, 0), 2, 60.92261104132729)
((-3, -7, -32, -12, -2, -2, 0, -3), 2, 60.945739864034636)
((-3, -4, 6, 8, 0, -1, 0, -2), 2, 60.96844960369569)
((0, -2, -45, -20, -6, -5, -3, -2), 2, 60.99250040910488)
((2, 10, -4, 2, 2, -1, -1, 1), 2, 61.01492619862027)
((0, 0, -23, 0, 1, -1, 0, -1), 2, 61.0353939865289)
((-3, -4, 0, -7, -9, -5, -2, -1), 2, 61.05548545496739)
((1, -3, 4, 16, -6, -2, 2, 1), 2, 61.0761345604389)
((1, -3, 1, -6, -2, -1, -2, 0), 2, 61.098737106069066)
((-2, 4, 22, -14, 9, 2, -1, -1), 2, 61.1201588068164)
((2, -5, 17, 2, -2, 0, -1, 1), 2, 61.141794895625516)
((-4, -5, -5, -1, 2, -1, -1, -1), 2, 61.162273516973436)
((-1, -5, -25, -21, -4, -3, -3, -5), 2, 61.184253424934816)
((7, -4, -56, 6, -2, -2, -1, 2), 2, 61.20485292465799)
((2, 3, -11, 2, 1, -1, 0, -1), 2, 61.22712533548025)
((0, -1, -6, -4, 0, 0, -1, 8), 2, 61.249071032580716)
((-2, 4, 14, -7, -8, -1, 0, -10), 2, 61.26867613661309)
((-43, -23, -5, -18, 6, -3, -3, -11), 2, 61.299071916361285)
((5, 6, 20, 15, 4, 2, -2, -4), 2, 61.31929680715737)
((6, -3, 2, 9, 2, 0, -2, -1), 2, 61.342020231162785)
((-69, -35, -10, -5, 4, -3, -2, -18), 2, 61.36318763117727)
((-19, 1, 1, 10, -1, 5, 20, 52), 2, 61.38278646321848)
((54, 41, -24, 5, -6, 4, 1, 10), 2, 61.40450750899888)
((-18, -54, 43, 1, -7, -44, -25, -3), 2, 61.42602271943274)
((-15, 34, 36, -32, -7, 17, 16, -81), 2, 61.44959514297004)
((16, 1, 42, 68, 12, -7, -1, -25), 3, 61.48884982515399)
((10, 50, -11, -3, 1, 2, -14, 3), 3, 61.6187079812228)
((5, -2, 32, 30, 2, 9, 11, 16), 3, 61.64199189316632)
((1, -8, 0, -17, -2, -1, 6, 9), 3, 61.66541549945861)
((-7, -13, 12, -6, 0, -7, -8, -5), 3, 61.69891249374939)
((3, 0, -9, 17, 1, -4, 1, -2), 3, 61.72697737350677)
((-1, -19, -26, -21, -3, -7, 1, -3), 3, 61.747467398474996)
((-7, 0, 34, -38, -5, -1, 23, 10), 3, 61.768076021094416)
((-4, -6, -7, 1, 1, -2, -5, -14), 3, 61.794670974194176)
((5, -1, -6, 25, 4, 0, 5, 8), 3, 61.81985872054801)
((-4, 2, -32, -25, -12, -3, 9, 4), 3, 61.84007163754277)
((1, 4, 21, 42, 4, 7, -21, 10), 3, 61.86110960646676)
((1, 13, 10, 23, 1, -2, -4, -4), 3, 61.88209568891836)
((-11, 10, -8, 7, -7, -4, 13, -15), 3, 61.905205125471184)
((-10, -16, -48, -5, -8, -3, 0, 7), 3, 61.92641928032893)
((-6, -5, -14, -20, -7, -4, -14, -10), 3, 61.94698684991524)
((2, 7, 17, -26, -2, -4, 5, 6), 3, 61.96548694313984)
((3, 7, -8, -18, -3, -3, -1, 7), 3, 61.98609157449216)
((5, -3, 27, 3, -5, 5, 16, 25), 3, 62.00851052183537)
((-1, 8, 8, 10, -4, -1, -22, -12), 3, 62.02868979815022)
((-2, -10, -48, -38, -3, 0, 22, 18), 3, 62.04926877135684)
((-6, -29, 19, 24, 4, 1, 6, -16), 3, 62.06953129409994)
((-18, -54, -58, -29, -14, -12, -23, -47), 3, 62.092156646970714)
((-5, -1, -7, -7, -1, -4, 4, 8), 3, 62.11833137666215)
((-1, 6, 13, 8, 2, -4, -46, -51), 3, 62.14202182766963)
((2, 15, -48, -15, -1, 1, 18, 29), 3, 62.1628955844612)
((18, 86, -14, -23, 5, 6, 10, 30), 2, 62.183690656272645)
((3, 15, 24, 33, 4, 4, -4, 8), 3, 62.59785132986169)
((-4, 10, -3, 4, 4, 2, 6, -4), 3, 62.619312373099085)
((11, -10, 34, 7, 1, 0, 8, 4), 3, 62.6448889829054)
((-2, -15, -31, -8, -10, -5, 3, -3), 3, 62.66901847329472)
((4, 9, 6, 23, 6, -1, -6, -15), 3, 62.69782458837207)
((-2, -5, -1, 1, -4, 2, 4, -2), 3, 62.720345598117035)
((-1, -4, 40, 1, -2, -2, -1, -15), 3, 62.744224208859585)
((-3, -4, -12, -15, -5, 1, 10, 11), 3, 62.76504037736861)
((-4, 17, -9, -3, -1, -1, -7, 15), 3, 62.78547053333022)
((-7, -29, -19, -6, -5, -5, 30, -2), 3, 62.80665503877516)
((5, 8, -11, 3, 2, 2, -4, 10), 3, 62.82789827286469)
((0, 2, -4, 4, 1, -2, -12, -20), 3, 62.85025963192535)
((-3, -6, -80, -29, -2, -3, -16, -2), 3, 62.87320029489762)
((1, 0, 42, 29, 4, 1, -5, 4), 3, 62.89376900484597)
((-28, -7, -6, -5, -2, -4, -14, -34), 3, 62.914155827050415)
((-2, -12, -22, -9, -7, -2, 1, 0), 3, 62.942443647584795)
((-2, -2, -39, -17, -2, 1, 1, -3), 3, 62.963020910248375)
((-6, 78, 5, -23, -7, -7, -25, -22), 3, 62.98213109715942)
((-18, 4, -71, -60, -7, -1, -3, -4), 3, 63.00347183220257)
((7, 22, 15, 42, 13, 5, -3, 9), 3, 63.029720685426)
((2, -1, 34, 20, 0, 0, -14, -29), 3, 63.050620670544276)
((-2, -14, -6, 4, -3, -4, 9, -7), 3, 63.069742261075625)
((5, 14, 19, -1, -1, 2, 5, 12), 3, 63.09151234242335)
((2, -1, -35, -17, 1, -1, -9, -4), 3, 63.115315689271874)
((-3, -9, 11, 4, 5, 0, 4, 9), 3, 63.142156960570276)
((-3, -9, 11, 4, 5, 0, 4, 9), 3, 63.16124833150781)
((-1, 19, -19, -21, -5, -1, 4, 4), 3, 63.18176800588883)
((-5, -9, -9, 4, -1, -3, -8, 8), 3, 63.20048020645114)
((-7, -19, 12, 18, -1, -2, -5, -9), 3, 63.22163962393141)
((-2, -8, -21, -4, -1, -2, -7, -12), 3, 63.24513450285062)
((-12, -20, -88, -26, -6, -3, -2, 13), 3, 63.2650292588388)
((0, -1, 65, 24, 2, 0, -1, -1), 3, 63.28692535019093)
