((-4, -4, -23, -22, -10, -9, -4, -3), 1, 5.701810153669486e-07)
((1, -3, -2, 19, 7, 6, 3, 1), 1, 0.025959201267626433)
((-2, 0, -5, 23, 7, 5, 6, 0), 1, 0.16253351951644088)
((-4, -6, 4, -7, -11, -9, -5, -3), 1, 0.2337171981989122)
((-9, 3, 4, -14, 1, 2, 4, -6), 1, 0.25887244423487127)
((4, 3, -35, 30, 11, 2, 0, 0), 1, 0.2829631623151402)
((0, 1, 16, -5, 1, -1, 0, 0), 1, 0.30963223894689845)
((2, 9, 20, 7, 5, -2, -3, 2), 1, 0.3364193430488377)
((-1, 0, 7, 2, -4, 3, 6, -2), 1, 0.3619389347536162)
((-1, 2, -17, -1, -4, -4, -3, -1), 1, 0.38553473571254665)
((2, 2, -8, 9, 14, 5, 4, 2), 1, 0.41044423373088257)
((2, 3, 1, 12, -2, 0, -2, 2), 1, 0.43607558091467297)
((12, -2, -3, 12, 4, 9, -6, 17), 1, 2.460938324089749)
((-77, 56, 126, 35, -5, 1, 11, -1), 1, 2.486288001851948)
((72, -8, 2, -8, 21, 17, 4, -4), 1, 2.509676256921285)
((-94, 17, -5, 81, 12, -2, -2, 3), 1, 2.5283052110553537)
((-16, 10, -46, -19, 1, -7, 30, 0), 1, 2.55211197898997)
((-6, 29, 22, -11, 0, 8, -22, -22), 1, 2.5780888558690727)
((16, -33, 13, -10, -14, -11, -1, -8), 1, 2.599218053755526)
((-26, -10, 20, -9, 3, -1, 8, 0), 1, 2.61954101568625)
((1, -29, 1, -10, -13, -26, -31, -21), 1, 2.6443273546052666)
((-6, -13, -4, -18, -17, -19, -19, 2), 1, 2.664092679502962)
((52, -14, 13, -6, 8, 0, -4, -9), 1, 2.685063367067143)
((30, 17, -8, -4, 0, 7, 6, 11), 1, 2.7069229668342807)
((16, 2, -16, 8, 4, 7, 0, 4), 1, 2.726737327299298)
((4, 1, -17, -3, -3, -13, 6, 6), 1, 2.745275052470908)
((-27, 11, 2, 3, 5, -8, -2, -3), 1, 2.771331184511147)
((12, -28, -22, -22, -7, -2, 20, 11), 1, 2.7940990826357646)
((12, -1, 11, -6, 4, -7, -5, -6), 1, 2.8135907206460837)
((9, -18, -9, 3, 8, 3, 7, 4), 1, 2.837616438090601)
((22, -16, -3, -3, -3, -4, -14, -8), 1, 2.859700689177793)
((1, 91, 2, -1, -1, 7, 10, 9), 1, 2.884337070489768)
((5, 10, 0, 14, 4, 2, 1, -13), 1, 2.9093406483756397)
((11, -49, -6, 1, -2, -11, -27, -14), 1, 2.9291453157633955)
((10, 50, -3, 2, 0, 5, 13, 11), 1, 2.949269854700772)
((2, 2, -9, 15, 13, 10, 2, 3), 1, 2.9721460872183094)
((-3, 17, -3, 11, -2, -19, -2, -6), 1, 2.9971850163271334)
((54, -11, -15, 28, 6, 3, 1, 7), 1, 3.0179167980458756)
((5, 16, 4, -9, 0, 3, 1, 4), 1, 3.039834556276581)
((2, -3, -2, -1, 3, 1, 15, 7), 1, 3.0604044065869593)
((18, 18, -9, 3, 10, 9, 3, 2), 1, 3.08180957208485)
((-13, -1, -6, 0, 6, 1, -9, 3), 1, 3.102893725671089)
((-2, -36, 34, 15, -1, 14, 0, 0), 1, 3.123368925932916)
((-18, 35, -5, -7, -5, 20, 8, 0), 1, 3.1426222282788117)
((-8, -3, -6, 4, 2, 9, -3, 3), 1, 3.175834702242921)
((8, -102, 18, 3, -2, -3, -5, -5), 1, 3.206252719050717)
((-45, 10, 4, 16, 7, 9, 8, 1), 1, 3.225414222253139)
((-6, -9, -7, 1, 8, 17, 0, -6), 1, 3.2467977208724452)
((52, -8, -18, 1, -3, -4, 13, 27), 1, 3.2719592388995733)
((8, 92, 10, 2, 9, -2, -10, 5), 1, 3.2955658732977957)
((-32, 15, -9, -1, 2, 2, 3, 5), 1, 3.318813293656337)
((38, 14, -6, 11, 2, 1, -1, 0), 1, 3.340905527277745)
((12, -27, 23, -14, -8, -13, -13, -10), 1, 3.3622901662590823)
((15, 2, 34, -14, -12, -12, -9, -1), 1, 3.38393936923155)
((-19, 3, 11, -2, -3, 11, 6, -2), 1, 3.4084012751528228)
((-10, -1, -9, -2, -6, 8, -23, 0), 1, 3.429944424456432)
((-14, -5, 3, 13, 9, 18, 19, 27), 1, 3.449571195367393)
((23, -1, -6, -2, -8, 46, 5, -6), 1, 3.469624461677849)
((6, -9, -5, 11, 4, -6, -2, -16), 1, 3.4908215111051306)
((-11, 7, -7, 18, 18, 24, 9, -5), 1, 3.5153398649469247)
((-26, 52, -20, -18, -17, -30, 5, -2), 1, 3.5367022668686627)
((46, 62, -5, 6, 2, -3, 4, 2), 1, 3.5566546111393986)
((15, -15, 0, -34, 10, -2, -9, -2), 1, 3.5774223142621087)
((-11, -1, 5, 5, -12, 21, -3, 8), 1, 3.6038450726952287)
((-6, -14, 7, -23, -15, 18, 6, -11), 1, 3.6246543990320608)
((3, -7, 11, 3, -5, -5, 0, 0), 1, 3.6442458187200693)
((-4, -6, 9, 12, 4, 5, 1, 1), 1, 3.665025495644102)
((-9, -9, -16, -16, -5, 3, -20, 26), 1, 3.692332604832056)
((15, 0, 46, -12, -2, -13, -10, -10), 1, 3.7158987563781873)
((5, 12, 19, 36, 12, 34, 10, 7), 1, 3.7382008166132503)
((1, -4, -72, -28, -7, -29, 7, 7), 1, 3.7579906592946064)
((-10, -16, 4, -36, 0, 6, 4, 18), 1, 3.7793194205364378)
((-12, -12, -65, -26, -13, -12, -12, -13), 1, 3.80355496459461)
((7, 12, 4, 40, 10, 9, 4, -35), 1, 3.824738899858538)
((-5, 1, 50, -9, -2, -9, -11, -16), 1, 3.8450031331446795)
((-14, 2, 31, 20, 2, 3, -14, 51), 1, 3.865062671446304)
((0, 5, 11, 13, -9, -10, -13, -4), 1, 3.8859484020391952)
((56, 22, 54, 11, 13, 1, 11, -1), 1, 3.9119041822207294)
((31, -7, 4, -9, 4, 11, 11, 41), 1, 3.9330630295199818)
((-32, 22, -25, 21, 7, 24, -4, -80), 2, 4.018186493666144)
((-7, -21, 68, 4, 1, 1, -2, -86), 2, 4.039470780788777)
((-45, -82, -29, 3, -14, -59, -88, 87), 2, 4.0602498875317945)
((15, 2, 67, 2, 5, 7, 11, -40), 2, 4.081413866460185)
((-3, 24, 36, 14, 3, -1, -4, -54), 2, 4.108988390544346)
((-28, 81, 14, 20, 5, 2, -8, -26), 2, 4.131458083997927)
((10, -25, 29, 13, 2, 8, 12, -9), 2, 4.1594551122144745)
((-36, -45, -25, -89, -9, -5, 1, -6), 2, 4.188688863053353)
((37, 47, 46, 39, -1, -23, -7, 76), 2, 4.220162284920594)
((-59, 36, 7, -23, -5, -14, 2, -64), 2, 4.2424592135265184)
((-9, -6, 111, 59, 5, 4, 3, -16), 2, 4.26233458336018)
((-26, -31, -4, -12, -4, -4, 2, -21), 2, 4.280832395860714)
((-52, 112, -55, 5, -1, -1, 12, 31), 2, 4.302568836528533)
((58, 30, -23, -9, 4, 3, 0, -23), 2, 4.325502087147607)
((8, 15, -14, -12, -3, -1, -1, 5), 2, 4.347442652618927)
((-5, -1, 27, 34, 3, 6, 4, 30), 2, 4.368480051361906)
((3, -9, -4, 9, 0, -3, -5, -20), 2, 4.3885726601624215)
((-10, -6, 3, 0, -5, 2, -3, -47), 2, 4.413240401430242)
((13, 1, -1, -17, 3, 6, 1, 4), 2, 4.43678602645982)
((-10, 13, 37, 16, 3, -1, 0, 56), 2, 4.4575377645141)
((-2, -16, -26, -8, 0, -5, -1, -12), 2, 4.477545986524342)
((-16, 8, -3, 23, 0, -1, -9, -59), 2, 4.501454246679693)
((14, -25, 0, -22, -2, 19, 10, 59), 2, 4.524913204194935)
((-21, -8, 2, 2, 1, -1, -2, 23), 2, 4.546266483220428)
((19, 13, -1, 16, 2, -3, -1, -26), 2, 4.568233277018455)
((7, 3, 8, -9, -9, -8, -3, 1), 2, 4.589113875982208)
((28, 8, -49, 17, -1, -2, -3, 13), 2, 4.610798430177629)
((-23, 10, -28, -24, 0, 2, 7, -16), 2, 4.636433768628526)
((-9, -15, 65, -10, -2, -5, 3, -9), 2, 4.661396863662307)
((-18, -49, -20, -4, 1, -7, 4, 31), 2, 4.681828159985951)
((0, 3, 20, 18, 9, -1, -2, -11), 2, 4.703282361051163)
((6, 15, -39, 8, -3, 2, 0, -51), 2, 4.723792912535942)
((5, 55, -19, 11, 4, 7, 8, 39), 2, 4.745375404329613)
((-46, -16, 11, -6, -3, 3, -1, 10), 2, 4.7669065798318995)
((-3, -19, -79, -27, -7, 2, 0, 13), 2, 4.788082532561613)
((-7, -4, 26, 7, 10, -2, 0, 5), 2, 4.8090954135209305)
((14, -2, 4, -29, -7, -5, -8, 40), 2, 4.830336366886395)
((1, 3, 47, 8, -5, -1, -2, 58), 2, 4.854285109893838)
((2, -27, 18, -9, -2, 6, -3, 19), 2, 4.872956827604059)
((4, -1, -18, -14, -2, 3, 6, -3), 2, 4.891515079292223)
((0, 0, -7, 7, 0, -1, 0, -34), 2, 4.918753766758333)
((28, -41, 21, 2, 1, 0, -4, 17), 2, 4.943071987063733)
((16, -21, 50, 0, -4, -5, -6, -37), 2, 4.963808330230599)
((2, 2, -16, -8, -3, 2, 3, 12), 2, 4.988103173114369)
((-2, 28, 66, 24, 0, 13, 4, -1), 2, 5.008582934824319)
((16, 38, 64, 43, 5, 6, 3, 44), 2, 5.031849741337382)
((-19, 14, -11, -7, 0, 0, -3, -34), 2, 5.056688536909813)
((-4, -10, -55, -12, -2, 3, 1, 6), 2, 5.075038102346352)
((1, 8, -6, 12, 6, 0, 2, 9), 2, 5.097929729751304)
((-5, 3, -35, -5, 0, 10, 2, -1), 2, 5.118864495911517)
((12, 1, -45, -5, -3, -10, -8, -31), 2, 5.140728657126778)
((1, 13, 2, 14, 10, -1, 1, 0), 2, 5.162636722280222)
((-2, -21, 7, -9, -3, -3, 0, 9), 2, 5.186793011177259)
((-1, 13, 12, 6, -3, -7, 0, -1), 2, 5.2170137453537375)
((-2, -3, -21, 4, 1, 6, 2, 12), 2, 5.2398437932090305)
((-3, -7, -8, -18, -7, 1, 0, 3), 2, 5.2597790320493045)
((3, 0, 7, 6, -10, -14, -4, 1), 2, 5.280177828055073)
((-1, -2, -13, -7, -2, -4, -1, 1), 2, 5.3023116848906025)
((-2, 1, -3, -4, -1, -3, -3, 0), 2, 5.32376645613683)
((-1, -6, -1, 2, 7, 6, 3, 4), 2, 5.3479210344908195)
((-3, -3, 8, -6, 0, -8, -2, 2), 2, 5.371431308297445)
((2, -1, -1, 4, 2, 1, 0, -3), 2, 5.390321975517567)
((1, 0, 3, 17, 5, 6, 1, 1), 2, 5.412150785509875)
((-8, -17, -43, -44, 4, -5, -4, -5), 2, 5.439252629532298)
((-13, 4, 8, 28, -1, -5, -2, 0), 2, 5.462924834747287)
((-24, -10, -7, -8, -12, -6, -4, -2), 2, 5.485037024704233)
((11, 3, -9, -30, -10, -5, -3, 3), 2, 5.506039642405274)
((-7, -8, -35, -48, -4, -4, -3, -4), 2, 5.526987522728841)
((-11, 2, -3, 16, -8, -6, 1, 24), 2, 5.549718929268475)
((42, 12, 13, 7, 2, 3, 5, 4), 2, 5.5707192662454545)
((-21, -15, -14, -7, -2, -1, 2, 3), 3, 5.613839205532581)
((0, 28, 18, -19, -1, 3, -26, -12), 3, 5.6333388260771144)
((9, -56, -14, 10, 4, -2, 0, 20), 3, 5.699854432786776)
((-32, 96, 99, 107, 33, -24, -118, -114), 3, 5.723064791379319)
((2, -3, -89, -24, -31, -24, 77, 52), 3, 5.743640343499851)
((10, 54, 67, 98, 13, -1, 26, 12), 3, 5.768590894551293)
((0, -46, -127, -85, -1, 3, -15, -41), 3, 5.788227358539515)
((-26, -14, 47, 72, 15, -6, -4, -32), 3, 5.808148342854406)
((18, -18, -8, -82, -5, 3, 23, 77), 3, 5.827537348281959)
((14, -2, 89, 51, 14, 2, 20, 53), 3, 5.852516978565185)
((6, -44, -14, 48, -23, -4, 7, 73), 3, 5.873140425891008)
((17, 15, 17, -49, -8, -2, 17, -78), 3, 5.893009523733499)
((-6, 15, -11, 11, -13, 8, 23, 36), 3, 5.913109544887216)
((13, 3, 55, 5, 1, 7, -4, 20), 3, 5.933408559215294)
((-19, -8, -62, 12, -10, -4, -14, -77), 3, 5.95325998144631)
((-12, -22, -21, 12, 1, -10, -30, 7), 3, 5.9767320531249055)
((3, -17, -41, -31, -8, -8, -13, 12), 3, 5.999971490949232)
((3, -17, -41, -31, -8, -8, -13, 12), 3, 6.018286275343834)
((2, -9, -11, -13, -1, 4, 21, 20), 3, 6.039006083261253)
((3, 7, 33, 26, 9, 3, -21, 20), 3, 6.061033886427924)
((9, 4, -68, -49, -13, 0, 18, -90), 3, 6.08556307370901)
((-34, -9, 10, -16, 0, -1, -18, -73), 3, 6.109108698738589)
((-9, 16, 51, 39, 7, 3, 8, 2), 3, 6.133295777410455)
((1, -23, 2, -52, -19, -9, -11, -3), 3, 6.163566117335271)
((12, 19, -16, -35, -6, 0, -13, -10), 3, 6.1981909296744435)
((10, 9, 35, 16, 17, 7, 8, 9), 3, 6.218358802368988)
((12, -3, -31, -24, -7, -3, 3, 11), 3, 6.2405639318314385)
((11, 84, 19, 16, 13, 6, 29, 10), 3, 6.26475272104635)
((10, -27, -28, -7, -7, -7, -30, 30), 3, 6.286880876071726)
((-4, -12, 17, 5, 18, 13, 19, -11), 3, 6.307223794337989)
((-8, -2, 36, 15, -12, -4, 12, 55), 3, 6.32640012224681)
((24, -19, 19, -32, -3, 1, 0, 8), 3, 6.345388860601576)
((-52, -15, -19, -13, 9, 6, -9, -1), 3, 6.3708542851098935)
((-1, -3, -8, -9, 1, 3, 6, -24), 3, 6.39008421003416)
((-15, -23, -56, -31, -9, -5, -15, -31), 3, 6.410732745324658)
((3, 32, 92, 69, 12, 5, -3, -9), 3, 6.431808346195667)
((5, -16, -22, 19, -7, -8, -17, -14), 3, 6.451152307323006)
((-1, -21, -28, -39, -9, 2, -1, 22), 3, 6.476820716272795)
((3, 6, 120, 23, -14, -3, 12, 28), 3, 6.498550884949445)
((-5, 12, 14, 10, 3, -3, -27, 7), 3, 6.520152192716622)
((0, -14, -37, -56, -7, -3, -6, -7), 3, 6.538612373270142)
((-1, 3, 16, -19, -8, 1, 9, -14), 3, 6.5620593569840615)
((-14, -2, -34, -10, -9, 0, 4, -11), 3, 6.587171269262853)
((9, -5, -4, -62, -11, -4, -12, 15), 3, 6.607677829480525)
((18, 18, -37, -31, 12, 0, 0, 13), 3, 6.62847575219705)
((-8, -22, 1, 24, 0, -1, -5, -2), 3, 6.663901098681799)
((-4, 5, -60, -52, 5, 4, 27, 21), 3, 6.679719630591124)
((-24, -24, -60, -96, -6, -4, -43, -38), 3, 6.699495788928111)
((13, 34, 127, 66, 23, 3, -5, 2), 3, 6.72622872583359)
((5, -6, -58, -24, -6, -9, -35, 9), 3, 6.74643537083718)
((21, 2, -10, 15, -8, -6, 16, -2), 3, 6.772023954444817)
((4, -2, 5, 7, 8, 9, 14, 25), 3, 6.792914246485831)
((-14, -63, -122, -122, -43, -17, -9, 33), 3, 6.8134972109595635)
((0, 24, 1, -15, 7, -7, 13, 32), 3, 6.834078464890249)
((-5, -5, -106, -90, -16, -7, -2, 6), 3, 6.854308487315468)
((-10, -24, -59, -23, 9, 2, 4, 2), 3, 6.882763941068371)
((-4, 0, 4, 17, 0, 1, 0, 3), 3, 6.903782523837843)
((2, 1, 26, 6, -7, -2, 0, 2), 3, 6.923959519428633)
((2, 7, 9, 22, -1, 2, -1, 1), 3, 6.948796034277002)
((-3, 4, 0, -6, -15, -9, -4, -4), 3, 6.971074717090435)
((1, -17, 5, 3, 4, 0, -3, -3), 3, 6.993702920866287)
((0, -37, -32, -10, -7, 0, 0, 0), 3, 7.015604714028562)
((2, 23, 79, -15, -2, 0, 0, 1), 3, 7.035910570528825)
((1, 19, -4, 14, 3, -1, -4, 1), 3, 7.0558663358856535)
((-1, -2, -26, -4, 1, 0, 0, -2), 3, 7.079620647166856)
((-1, 7, -6, 11, 1, 0, 1, 1), 3, 7.103122938439267)
((0, -4, -37, 2, 4, 1, 0, 1), 3, 7.123640902277246)
((0, 0, 17, -8, -7, -3, -1, 0), 3, 7.1463409488610345)
((-2, 3, 43, 16, 2, 1, 0, 1), 3, 7.175529085218685)
((20, 15, 39, 31, 6, 4, 7, 11), 3, 7.208990728286509)
((-126, -118, 10, 0, -14, -16, -29, -70), 3, 7.296718779310868)
((-68, -64, -7, 47, 13, 10, 14, -79), 3, 7.318519080252408)
((82, -24, -7, 0, 10, -10, -35, 20), 3, 7.341060616513925)
((-19, 72, 27, 5, 2, -1, 9, 6), 1, 7.367107055476902)
((-39, 81, 17, 17, -4, 6, -30, 55), 1, 7.3907735588817385)
((17, 17, 13, -8, 0, 15, 18, -15), 1, 7.416985920520188)
((-1, -38, 21, -13, -5, 8, 10, 10), 1, 7.438421305611892)
((-28, -22, 4, -5, -7, -3, -1, -18), 1, 7.458262464584632)
((1, 4, -21, -5, -5, -11, -11, 17), 1, 7.488730087140764)
((11, 17, -4, -23, 1, 11, -6, -5), 1, 7.511628556717901)
((-10, -10, 3, 41, 43, 11, -3, 11), 1, 7.5333045581980915)
((2, 79, -11, -4, -1, 6, -40, -11), 1, 7.5549976651087425)
((-16, 27, 28, -6, 6, 22, -3, 12), 1, 7.5741278083553185)
((36, 13, -20, -9, -4, 6, 3, 19), 1, 7.600768946117324)
((39, 27, -13, 5, 13, 11, -2, -2), 1, 7.62180178341218)
((0, -7, -1, -25, -9, -5, 2, 27), 1, 7.641194780106841)
((104, 63, 16, -22, 1, -1, 7, 3), 1, 7.662357048492185)
((-55, -23, 0, 3, -4, 3, 8, -7), 1, 7.683353964383072)
((41, 40, -11, 11, 16, 6, 5, 24), 1, 7.7060083964856325)
((27, -20, -6, -12, -6, -1, -8, -2), 1, 7.726901539431723)
((96, 78, 19, 24, 0, -4, -12, -11), 1, 7.747653277486004)
((-3, -19, -3, -6, -8, -2, 9, -2), 1, 7.767733342304181)
((9, -104, 8, 1, 0, -10, -10, -4), 1, 7.7913690559341875)
((-4, 10, 14, 2, 0, -8, 2, 7), 1, 7.817811770702845)
((-33, 46, 15, -7, -12, -4, -2, 3), 1, 7.836998361869943)
((16, -6, -2, -2, -6, -4, -10, -2), 1, 7.857829355085359)
((9, 0, -13, -2, 0, -5, -9, -5), 1, 7.881270636989125)
((28, 9, -12, 17, 13, 4, 5, 10), 1, 7.905521575934712)
((-67, -11, -5, -13, -8, -6, -10, -3), 1, 7.924955625662479)
((-11, 6, -17, 12, 19, -4, 0, 1), 1, 7.946278114913142)
((-39, -18, -3, -8, -10, -2, 8, -8), 1, 7.968129161965049)
((34, 51, -8, 2, -4, -5, 1, 2), 1, 7.987479395083557)
((-46, 29, 10, -3, -2, 7, 7, -3), 1, 8.006472694886446)
((10, -6, 1, 0, -7, -3, 2, -1), 1, 8.02724495945728)
((-27, 4, -12, -1, 7, 0, -6, -2), 1, 8.047518315639666)
((29, 13, -2, -2, -2, 1, 1, 2), 1, 8.067317851398283)
((-24, -5, 19, 6, -2, -6, 5, -6), 1, 8.08746576775729)
((-39, 22, 1, 16, 4, -5, 7, -5), 1, 8.1137174718858)
((23, 16, 7, -2, -1, -3, 5, -1), 1, 8.134264514955563)
((-13, 10, 30, -2, -4, 0, 0, -7), 1, 8.157390486757832)
((-24, 4, -7, -3, -8, 0, 6, 1), 1, 8.186078574365004)
((11, -5, 18, -2, 6, 5, 0, 9), 1, 8.213829854563928)
((-11, 8, -31, 0, 4, -3, 5, 5), 1, 8.234533127231902)
((-7, -8, -8, -12, -1, -4, -11, -5), 1, 8.254633718566634)
((13, -3, -8, 6, -4, 5, 4, -5), 1, 8.273240435641103)
((-10, -20, -20, 8, 2, 3, -1, 15), 1, 8.298355769005987)
((-3, 5, 14, -1, 0, 5, -2, -2), 1, 8.320757040737723)
((8, -11, -11, -5, -1, 0, 0, -5), 1, 8.339383714147731)
((-29, -20, 14, -14, -8, -14, -3, -11), 1, 8.35924939090413)
((-22, 9, 3, 2, 9, -8, -5, -6), 1, 8.38031358815483)
((-40, -17, 4, 1, -3, 1, -5, 3), 1, 8.403449253034362)
((19, 16, 5, 1, 3, 5, 3, 12), 1, 8.425409774841219)
((17, 7, -30, 0, 1, -5, -1, -12), 1, 8.445452207712382)
((17, 2, 2, 10, 1, 1, 2, 2), 1, 8.465170207585802)
((4, 8, -20, -13, -6, -5, 0, -2), 1, 8.484903602346638)
((-69, -38, 7, 2, 9, -11, -14, -31), 1, 8.504530943438613)
((4, -14, -1, -30, -2, -6, -4, -3), 1, 8.530281458454615)
((6, 9, -4, 8, 2, -5, 5, 5), 1, 8.550589025497924)
((-5, -11, 5, 2, 2, 3, 0, 0), 1, 8.571354447896574)
((9, 5, 7, -29, -10, -5, 5, -1), 1, 8.598816646320708)
((-2, 7, 28, 10, -1, 10, 12, -11), 1, 8.62031018987598)
((7, -1, -9, 2, 0, 11, 0, 59), 1, 8.640687319003163)
((-51, -6, -72, -79, -9, -10, 0, -67), 1, 8.666832969462815)
((22, 16, 1, 48, 8, 12, -4, 15), 1, 8.687614356929895)
((6, 10, -27, 39, 0, -11, 51, 22), 1, 8.712615654091705)
((-20, -4, 1, 4, -1, -9, 16, -79), 1, 8.737057033496423)
((-12, 15, 11, -4, 10, 14, 35, 10), 1, 8.756006999542144)
((5, -55, -58, -89, -11, 1, 8, -116), 1, 8.778341560095084)
((51, 34, 4, 36, 18, 32, 23, 42), 1, 8.79854364365055)
((-59, -17, 45, 28, 3, -12, -23, -33), 1, 8.824209771876278)
((-35, -39, -43, -8, -6, -6, -38, 14), 1, 8.84670626383758)
((-5, -18, -19, 27, 4, -7, 16, -50), 2, 8.885570372026008)
((-55, 40, 1, -26, -6, 2, -14, -91), 2, 8.905563199148833)
((44, 76, -13, 14, 16, 11, 21, 31), 2, 8.928302018041668)
((18, 1, 12, 21, 11, 5, 4, 24), 2, 8.949023536502134)
((-15, -6, 36, 25, -3, -33, -21, -37), 2, 8.968508332340267)
((-18, -33, -60, -34, -9, 5, -3, -31), 2, 8.990208281423103)
((35, -4, 15, 4, 3, 8, 16, -33), 2, 9.014326938373125)
((-46, 50, -65, -15, -1, -4, -7, -5), 2, 9.036491584983485)
((-12, 51, -16, -46, -15, -7, -7, 20), 2, 9.058226885289272)
((0, -69, -23, 12, 7, -2, 2, -16), 2, 9.081712641312237)
((26, 10, -74, -49, -3, -5, 15, 35), 2, 9.102270517821292)
((45, 1, -16, -52, -7, -9, -8, 92), 2, 9.128787356121949)
((14, -92, -10, -5, 2, -4, 7, 1), 2, 9.156158895764639)
((9, 17, 36, 12, 3, 3, 4, 28), 2, 9.182744155787137)
((-22, 94, 56, -16, -3, -3, -7, 3), 2, 9.202154828093274)
((1, 26, -45, -3, -4, -2, -3, 67), 2, 9.22510404378078)
((30, -8, 21, 0, 1, 1, -4, -10), 2, 9.24769803669571)
((3, -2, 30, -2, -3, -10, -4, 67), 2, 9.269868955297238)
((15, -42, -13, 8, 2, 12, -1, 18), 2, 9.290859029015941)
((44, 124, 21, 30, 4, 7, 7, -77), 2, 9.31082220672597)
((-16, 10, 16, 15, 3, 2, 2, -45), 2, 9.332481102775699)
((62, 21, -65, -21, -10, -4, -5, 37), 2, 9.35237357803982)
((-27, 16, 43, 27, -1, 0, -2, 30), 2, 9.373769620641465)
((-35, -21, -17, -11, 3, -3, -2, -37), 2, 9.397773101026383)
((-62, -93, -4, -18, -7, -6, -8, -42), 2, 9.418649138542014)
((24, 23, -7, 35, 9, 2, 2, -25), 2, 9.446110196604115)
((-13, 31, -2, 16, 4, -1, -2, 2), 2, 9.46751251119693)
((10, 52, 13, -10, -1, 6, 2, 17), 2, 9.486782918973287)
((11, 10, 20, -26, -9, -3, 0, -51), 2, 9.513032342377734)
((-20, -7, 12, -31, -4, -2, 0, -30), 2, 9.534575491681345)
((-71, 0, 3, 11, 1, -5, -10, -45), 2, 9.555189245929906)
((15, -59, 11, -4, 5, 6, 5, 53), 2, 9.576568753282105)
((13, 33, 0, 6, 1, 4, 1, -3), 2, 9.597573081526193)
((18, 15, -20, 9, 1, 0, 6, 68), 2, 9.61748437276382)
((5, -37, -11, 5, -6, -6, -6, 53), 2, 9.638725896310302)
((11, 6, 11, -3, -7, -5, -3, 23), 2, 9.659262105940773)
((2, -24, -36, -11, -9, -4, -4, -45), 2, 9.678344924163074)
((3, 57, 3, -14, -4, -2, 4, 61), 2, 9.699117758914923)
((-2, 15, -25, -44, -7, -7, -4, 66), 2, 9.719280499980329)
((-19, 11, 0, 6, 0, 1, -1, -21), 2, 9.738701435544742)
((4, 15, 7, -3, -4, -6, -4, 19), 2, 9.76408817507294)
((5, -7, 0, 0, -2, 3, 2, -3), 2, 9.785087941868905)
((-4, -2, 8, 7, 1, -8, -5, -14), 2, 9.804733528753374)
((-3, -8, -17, -5, -10, -2, 1, -2), 2, 9.83125378814012)
((-3, -2, -31, -12, -1, -10, -2, -9), 2, 9.85302329930683)
((1, 4, 18, 2, 2, 1, -1, -4), 2, 9.877521126632072)
((-3, -7, 8, -5, -10, -2, -2, 0), 2, 9.89940296345881)
((2, 3, 9, -4, -2, 5, 1, -1), 2, 9.920455186908187)
((-2, -4, 1, -19, -7, 1, -1, -3), 2, 9.946970314665798)
((1, -3, 4, 18, -6, 6, 1, -5), 2, 9.968367497629472)
((-2, -1, -1, 24, -2, 2, -1, 0), 2, 9.987207418739228)
((-1, -8, 6, -15, -12, -6, -4, -4), 2, 10.010467383080107)
((-3, 7, 12, 1, -4, -1, -3, -2), 2, 10.0295165606225)
((-3, 1, 6, 10, 6, 2, 0, 10), 2, 10.050642907603876)
((-18, -8, -18, -3, 1, -1, -4, 3), 2, 10.07329562916339)
((25, 12, 22, 17, 11, 5, 4, -4), 2, 10.093339202396585)
((-11, -20, -60, -12, -12, -8, 1, 4), 2, 10.112301712424644)
((-6, -5, 86, 83, -13, -13, -1, -7), 3, 10.160363410571954)
((-20, -61, 70, 78, 12, 12, 40, 12), 3, 10.187196699336138)
((6, -9, -60, -38, -8, -4, -35, -53), 3, 10.212049179252938)
((60, -27, -25, 13, 1, -9, -26, -49), 3, 10.232854514322662)
((-41, 17, 51, -13, 5, 2, -37, -53), 3, 10.253455724588886)
((7, -49, -73, 9, -30, -22, -56, -17), 3, 10.281327883163067)
((-45, 0, 51, 48, 11, 10, 28, 71), 3, 10.300672414471423)
((-29, 13, -84, 117, -7, -5, 22, 41), 3, 10.321417310353517)
((12, 103, 29, -12, 17, 9, 9, 43), 3, 10.344006171639311)
((9, -22, -14, -41, 6, 10, 25, -49), 3, 10.366496391609445)
((17, -41, -12, -18, -18, -5, 33, 48), 3, 10.391835235932351)
((15, -12, 6, -2, -4, -1, 3, 29), 3, 10.410033133218803)
((-17, -89, -100, -98, -16, -4, -12, -30), 3, 10.429987758213601)
((-11, 45, -23, -30, -1, 2, 7, -45), 3, 10.453553339578717)
((7, 42, 7, -10, 3, -7, -17, 2), 3, 10.473035854692789)
((-73, 4, -6, 23, 0, 4, -3, -31), 3, 10.492755565109256)
((-28, 31, 33, 13, -4, -2, 1, 10), 3, 10.5151385910485)
((2, 20, 46, 51, 10, 5, 10, 36), 3, 10.536608187001127)
((29, -32, -59, -31, -7, 0, 15, 72), 3, 10.558437567174451)
((-3, 11, -65, -44, -16, -9, -16, -78), 3, 10.582468986429122)
((-16, -2, -8, -98, -27, -8, 2, -50), 3, 10.606942295970702)
((-22, -2, 32, 21, -5, -8, -15, 29), 3, 10.628756851437625)
((26, -9, -28, -6, 5, 8, 2, 35), 3, 10.64974920588039)
((25, 6, 25, 70, 8, -2, -15, 10), 3, 10.676050515757238)
((21, 11, -17, -9, 0, 0, 2, 39), 3, 10.698806440080533)
((12, -18, 31, 16, 9, 4, -15, -35), 3, 10.718845451865604)
((33, 10, -32, -26, -12, -8, 0, 27), 3, 10.738721391880281)
((-66, -55, 20, 46, 6, 2, 8, -71), 3, 10.763996375929466)
((4, 2, 73, 62, 16, 7, 7, -89), 3, 10.784354118902128)
((-3, -1, 17, -40, 1, 2, -19, 12), 3, 10.805421737238921)
((-10, -94, -74, -48, -11, -4, 8, -39), 3, 10.825980754110008)
((72, -20, 11, 19, 3, 7, 25, 91), 3, 10.84502765092834)
((6, 44, 39, -5, 15, 2, 7, 36), 3, 10.869395476982078)
((-19, 7, 17, 17, 4, -1, -4, -6), 3, 10.889431067681057)
((-51, 4, -14, -31, -6, -3, 1, 5), 3, 10.910017453240881)
((-38, -6, -42, -42, -8, -8, -20, -57), 3, 10.932537322623814)
((54, 11, -48, -66, -9, -1, -15, 29), 3, 10.951377813914583)
((6, -49, 2, 11, -7, 0, 2, -1), 3, 10.976609464206602)
((8, 34, 16, 21, 6, 4, 3, 26), 3, 10.9982449828347)
((-15, -29, 6, -1, -8, 0, 5, -30), 3, 11.017676181657391)
((13, 16, -9, 42, 14, 5, 8, 13), 3, 11.038992398916884)
((14, 29, -1, 2, 1, 1, -2, 19), 3, 11.062991888034695)
((-18, -28, -96, -93, -13, -3, -1, -42), 3, 11.086694312843498)
((-8, -13, -11, -62, -16, -7, 0, 6), 3, 11.111104332292372)
((7, -21, 12, 0, -5, -5, -14, 9), 3, 11.132295109728485)
((-2, -35, -5, 13, 7, 2, 12, 42), 3, 11.154882260471231)
((53, 26, -5, 22, 7, 7, 7, 58), 3, 11.187159067389125)
((1, 41, 2, 30, 14, 5, 9, 57), 3, 11.20796668318291)
((-9, -30, -29, 4, 0, -1, -44, -31), 3, 11.227194327383115)
((-1, 25, -6, 39, 10, 4, 19, 15), 3, 11.248013916978223)
((4, 1, 119, 80, 12, 3, 5, 16), 3, 11.268349422891285)
((-11, 4, 53, 24, 4, 6, 15, -65), 3, 11.290715913581085)
((-5, -21, 32, 19, -2, -1, -9, 0), 3, 11.308360165101615)
((22, -2, -33, -35, -4, -3, -14, -16), 3, 11.328276587968382)
((-10, 1, 41, 45, 6, 1, -3, -24), 3, 11.34788283236279)
((6, -3, -79, -71, -11, 1, 23, 30), 3, 11.371104024394624)
((23, 13, 10, 8, 0, 5, 19, 26), 3, 11.394078328046804)
((-89, -14, 76, 32, 19, 6, 0, 13), 3, 11.414925286330652)
((-16, 12, -8, 47, 15, 4, 21, 19), 3, 11.434225343519808)
((-79, -27, 10, -35, -11, -9, 8, -31), 3, 11.45736671020949)
((26, 8, 16, -3, 0, 0, 6, 4), 3, 11.481351944801917)
((16, 3, 29, -14, -12, -5, -2, 10), 3, 11.508080320259273)
((14, 8, 1, 11, 13, 2, 0, 3), 3, 11.528054331408592)
((-13, -9, -40, -4, -3, -4, -6, -11), 3, 11.548148650752154)
((-2, 2, -22, -6, -3, -1, -4, -6), 3, 11.568043976921354)
((12, -78, -24, 3, 5, 2, 0, 1), 3, 11.595461701226288)
((-17, 71, 79, 10, -1, 4, 6, 13), 3, 11.617660558697569)
((-5, -42, -100, -13, 2, -2, -2, -8), 3, 11.63619201187801)
((-2, -119, -45, -26, -8, -8, -6, -12), 3, 11.657448360130891)
((14, -89, -22, -23, -7, -1, -1, 1), 3, 11.678694445125494)
((3, -4, -16, -11, -3, -2, -2, -1), 3, 11.702045068247816)
((-11, 5, -89, 5, -4, -3, -4, -9), 3, 11.723725060995115)
((7, 0, 71, 46, 1, -1, 1, 2), 3, 11.742335769336691)
((-4, 7, 7, 1, 2, 0, -1, -2), 3, 11.762629652035631)
((-63, 92, 14, -20, -9, -1, 2, -11), 3, 11.788620783440118)
((-60, 53, 4, 7, -2, 1, 3, -18), 3, 11.8135245796483)
((127, -31, 33, 18, 5, 5, 16, 48), 3, 11.83506145696074)
((99, 28, 33, 15, -1, 2, -3, 12), 3, 11.859252526899715)
((-79, -57, 16, 9, -5, -5, -15, -56), 3, 11.881095591417408)
((8, -38, -9, -6, -8, -7, -16, -46), 3, 11.907057643590111)
((6, -3, -6, 20, 5, 5, 27, 45), 3, 11.928676626968764)
((-11, 1, 38, -18, 0, -6, -5, 1), 1, 12.01763683916733)
((11, 5, -15, -17, -7, -2, 3, -4), 1, 12.036640972409511)
((21, -53, 7, 34, 13, 3, -8, -12), 1, 12.055656509271998)
((69, 2, -15, 9, 4, -3, 2, 9), 1, 12.078404451061079)
((-2, 7, -8, -7, 2, -4, -2, 5), 1, 12.103150307128004)
((24, 109, 10, -10, -1, -1, 6, -4), 1, 12.123856430701055)
((5, -10, 12, 18, 9, 2, -15, -5), 1, 12.146595819774904)
((-25, 14, -17, -18, -6, -4, -8, -11), 1, 12.178052136211683)
((-91, -59, -9, -32, -10, -6, -6, 7), 1, 12.213114847570658)
((-4, 32, -11, 19, 10, 6, 16, -46), 1, 12.239025013270963)
((-13, -58, -20, 11, 5, 0, 11, 5), 1, 12.267783233143026)
((-30, 105, -24, -12, 2, 1, 3, -2), 1, 12.295187843284607)
((-12, 6, -5, 4, 2, -8, -4, -9), 1, 12.320957744455132)
((15, 0, 6, 4, -3, -3, 5, 15), 1, 12.34628176407164)
((-25, 8, 8, -20, -3, 7, 4, -6), 1, 12.365901692810416)
((27, -2, -2, -4, -5, -2, 1, 5), 1, 12.389625784497804)
((27, -2, -2, -4, -5, -2, 1, 5), 1, 12.409907693395422)
((13, 22, -3, 5, 0, 0, -1, -1), 1, 12.437132696517164)
((31, -4, -7, -14, 9, 12, 1, -2), 1, 12.457057672099161)
((3, -3, 12, 8, 5, 2, 8, 4), 1, 12.478019806948112)
((-7, -37, -3, -1, -3, -3, 0, -7), 1, 12.499487122176678)
((-5, 1, 10, 4, 0, 0, 4, 7), 1, 12.522524145740547)
((52, 105, 16, 15, 9, 1, -9, -8), 1, 12.544339841569503)
((-25, -30, -8, -5, -3, -2, 1, 0), 1, 12.565049386228646)
((-30, 16, -2, 7, -1, -4, -6, -8), 1, 12.587789915664526)
((-8, 11, -13, 5, 3, 0, 0, -1), 1, 12.61120325869854)
((6, -40, 14, -25, -23, -9, -4, 7), 1, 12.630499324620587)
((10, 27, -20, -17, -8, -5, -4, -3), 1, 12.655285663539605)
((62, -72, -19, -2, 2, 3, 7, 8), 1, 12.676617845867527)
((1, -6, 2, 2, -2, -2, 3, 4), 1, 12.69795630018662)
((27, 45, -6, 40, 18, 5, 7, 14), 1, 12.725214373807253)
((14, 11, 0, -2, 0, 3, 2, 5), 1, 12.746268307799678)
((-102, -5, 12, 13, 0, -1, -3, -21), 1, 12.767093599204939)
((5, 9, 60, 7, -2, -2, -3, 2), 1, 12.78844459750637)
((-24, -3, -3, -17, -4, 1, 0, -8), 1, 12.813736116805002)
((3, -38, 10, 4, -12, -3, -3, -3), 1, 12.834378950285346)
((34, -11, -7, -3, -11, -7, -2, -7), 1, 12.856960969398955)
((38, 33, -3, -16, -2, -2, 6, 8), 1, 12.876525020398226)
((-50, -19, -7, 23, 18, 5, 2, -1), 1, 12.898592166054957)
((16, 23, -20, -11, -13, -1, 4, 3), 1, 12.922792358890177)
((33, 41, -12, 4, -2, -1, 1, 0), 1, 12.943574316538271)
((-30, -28, 45, -14, -4, -4, -10, -9), 1, 12.963404642071719)
((0, -6, -12, -2, 0, -1, 4, -7), 1, 12.98491301033339)
((18, -11, -6, -1, -1, 2, -1, -8), 1, 13.006721293809145)
((-3, 1, 6, -9, -1, -3, -2, 1), 1, 13.029333532516569)
((-21, -21, -8, 13, -1, 1, 3, -5), 1, 13.04927789425309)
((-31, -6, -3, 5, -3, -3, -1, 0), 1, 13.072268733154715)
((32, -7, 5, -10, -4, -2, -4, -8), 1, 13.093896269248598)
((4, -2, -18, 6, 4, 1, 3, -1), 1, 13.120331571664057)
((23, -2, 1, 21, -1, 0, -5, -6), 1, 13.143945618415477)
((-6, -1, -3, -10, -14, -16, -6, -3), 1, 13.164779462535972)
((-12, 5, -9, -4, -2, -6, -5, -5), 1, 13.19257350631105)
((5, -15, -8, -12, -3, 3, 0, -5), 1, 13.214347578925882)
((-12, -6, -19, 0, 1, -1, 1, 1), 1, 13.239386508034706)
((-29, -1, 5, -21, -6, -2, -1, 0), 1, 13.259619381365003)
((16, 1, -2, 15, 22, 3, 3, 4), 1, 13.281365515110082)
((12, 3, -8, -10, -11, -6, 0, -1), 1, 13.301255709650142)
((-13, -10, 8, -7, -5, 6, 0, 29), 1, 13.325544850723759)
((0, -4, -4, -5, -6, 0, 1, -3), 1, 13.346843962552791)
((13, -1, -2, -7, -5, -9, 0, -1), 1, 13.366289415900866)
((-4, 5, 6, 7, -1, -1, -2, -8), 1, 13.386833037884537)
((-9, 0, 7, -3, 2, -1, 0, 7), 1, 13.407317931223625)
((-7, 0, 9, 7, -2, 4, 3, -34), 1, 13.432416729339064)
((-13, -52, 6, 1, 3, -2, 0, -1), 1, 13.457321095728261)
((12, 7, 41, 34, 4, -1, 3, 35), 1, 13.47605097190205)
((-24, -81, 20, -4, -5, -2, -4, 3), 1, 13.495007209938938)
((6, 10, 7, 19, 6, 5, 3, 12), 1, 13.515700219348636)
((-16, -14, 6, 2, -5, -2, -4, -20), 1, 13.544351815370826)
((2, 5, 9, 1, -6, -3, -3, 4), 1, 13.568910081883695)
((28, 22, 95, 82, 23, 16, 35, 51), 1, 13.593882299813721)
((-39, -29, 100, -12, -22, -11, -24, -82), 1, 13.612542043722621)
((-58, 5, 78, 65, 13, -11, -39, 38), 1, 13.63324816729567)
((0, -14, -28, -22, -4, -6, -11, 12), 1, 13.659270088474988)
((-58, -70, -76, -128, -52, -26, -4, -81), 1, 13.680780737460722)
((-22, 109, 69, 0, 19, 6, -25, -53), 1, 13.70160032705583)
((19, -26, 48, -4, -9, -8, -25, 25), 1, 13.722222634019623)
((7, 25, 82, 36, 0, 3, 10, -12), 3, 13.767543472026064)
((-11, 7, 34, -41, -12, -4, -12, -35), 2, 13.78813955066315)
((-11, -3, 37, 26, 5, 30, -7, 7), 2, 13.809016158359794)
((3, -21, 23, 6, -6, -10, -8, 0), 2, 13.82868683320894)
((-82, -46, 54, 0, -6, -5, -5, 49), 2, 13.851462143686756)
((47, 7, 41, 29, 9, 4, -2, -89), 2, 13.874582983859886)
((23, -81, -21, -15, -3, 0, -2, -31), 2, 13.900079198143034)
((-36, 34, -30, -13, -3, 0, -3, 17), 2, 13.924773737918578)
((-23, 17, 45, 14, 6, 1, 2, -44), 2, 13.94769843582242)
((-26, 54, -14, -9, -3, -1, -1, -56), 2, 13.97264556578777)
((25, 2, -5, 1, -1, 10, -3, -23), 2, 13.993127038040766)
((31, 9, 15, -10, 3, 6, 1, 17), 2, 14.014760846125819)
((17, 3, -20, 16, -3, -3, -3, -8), 2, 14.035823332833475)
((-3, -22, -39, -27, -8, -4, 1, 9), 2, 14.060585724149846)
((32, 17, 13, -26, -7, -9, -9, -61), 2, 14.08011841519327)
((26, -71, -35, -10, -1, 1, 0, -61), 2, 14.098794694351616)
((23, -11, 28, 9, -1, -3, -1, 42), 2, 14.11980700512992)
((15, 17, 2, 19, 8, 6, 6, -32), 2, 14.14379395026539)
((25, -57, 37, -18, -2, 1, -1, 15), 2, 14.16663654210302)
((-14, 46, 0, -6, -6, -10, -1, -11), 2, 14.194951731326144)
((-64, 30, -11, -8, -3, 1, -4, -33), 2, 14.215250745654222)
((-60, 18, 58, 7, -7, -5, -8, -12), 2, 14.237976450383703)
((18, -53, 106, -10, -2, 14, 8, 55), 2, 14.264605044163371)
((-12, 1, -2, 3, 4, 1, 3, -78), 2, 14.288096501996488)
((12, 27, 13, 6, 6, 6, 6, -6), 2, 14.309583203379576)
((23, -24, -51, 28, 1, -1, 4, 68), 2, 14.330723234705323)
((-19, -6, 8, -5, -2, -8, -6, 48), 2, 14.356789059822821)
((56, 18, -13, 13, -2, -5, -2, 27), 2, 14.378332209126432)
((16, 6, 27, 28, 10, 2, 2, 3), 2, 14.401884106147179)
((0, 13, 19, 20, -7, -3, -4, -40), 2, 14.423551554912137)
((9, 8, 36, -3, 2, -4, 1, 2), 2, 14.444473206908997)
((13, 2, 0, 2, -3, -9, 0, 7), 2, 14.465945083585686)
((13, 7, -33, -16, -2, -2, -4, 23), 2, 14.486608443582584)
((-1, -9, -32, 5, 2, 4, 2, -21), 2, 14.507155486652348)
((-18, -20, -6, 1, -4, 1, -2, -12), 2, 14.527212174048895)
((2, -14, -19, -7, -3, -1, -3, 1), 2, 14.550057616791603)
((6, 0, -5, -5, -2, -3, 1, -1), 2, 14.57078255633816)
((6, -2, 10, 7, 8, 6, 0, 2), 2, 14.593313259160386)
((1, -3, -25, -6, -5, -3, -2, -12), 2, 14.61298393400953)
((-3, 2, 16, -14, 0, 1, -2, -4), 2, 14.635848192725744)
((-6, 6, 11, 11, 0, -10, -4, -8), 2, 14.656472210232582)
((0, 0, -2, 6, 0, 4, 0, 2), 2, 14.675987225664532)
((0, -9, 27, 3, -2, 0, -2, -2), 2, 14.701399053157406)
((2, -2, 5, -8, -4, -4, -3, 3), 2, 14.72111534248778)
((3, 6, -11, 4, 1, -2, 1, 0), 2, 14.744338815243676)
((0, -3, 23, -2, -6, -6, -3, 4), 2, 14.771483993023265)
((0, 3, -3, 1, -3, -6, 0, -1), 2, 14.793279162335667)
((-3, -11, -1, 3, 11, 4, -1, 1), 2, 14.81364659838559)
((-1, -2, -7, -4, -13, -5, 0, 0), 2, 14.835280406470643)
((0, 4, -4, -3, -14, -2, 1, -4), 2, 14.859937884480185)
((2, 3, -7, 6, 7, 3, 0, 5), 2, 14.884712819778896)
((2, 3, -7, 6, 7, 3, 0, 5), 2, 14.90315418435891)
((-14, -15, -63, -47, -14, -5, -1, 4), 2, 14.927198147595917)
((2, 1, 10, 3, 1, 0, 11, 33), 2, 14.947157904219853)
((9, 4, 12, 2, 8, 8, -7, -21), 2, 14.96985452971755)
((3, 1, 11, 12, 4, 13, 51, 19), 3, 15.011685859909946)
((-10, -35, -65, -34, -12, -12, -25, -8), 3, 15.03420686965491)
((2, -13, 29, -16, -1, 0, 19, -22), 3, 15.055400497996098)
((17, 28, 20, 30, 7, 9, -78, -75), 3, 15.0776632157411)
((11, 6, 29, -10, 3, -19, 6, -12), 3, 15.100751555596355)
((-44, 6, 54, 82, 12, 23, 103, 5), 3, 15.122126501500432)
((40, 77, 47, 12, -2, -10, -68, -128), 3, 15.141486997877216)
((-8, 45, 24, 1, 8, 3, -4, -11), 3, 15.176166547593864)
((-28, -33, -79, -50, -28, -14, -40, -2), 3, 15.199959631184113)
((-33, 20, 87, 111, 17, -1, -26, -90), 3, 15.224519038059013)
((20, -58, -97, -57, -11, 0, -1, 38), 3, 15.244910991892596)
((-15, -16, -76, -79, -16, -12, -15, 2), 3, 15.270261810016827)
((-2, 24, 98, 88, -7, -3, 17, 10), 3, 15.292597510931795)
((-12, -8, 40, 36, -5, -14, -30, -5), 3, 15.311822874407937)
((-15, -70, 14, 15, 7, 11, 40, -67), 3, 15.333375146607793)
((5, -30, -24, 2, -11, -4, -8, 55), 3, 15.356062079028229)
((-6, 22, -31, -3, -3, 0, -1, -23), 3, 15.379095681506008)
((-7, -12, -12, 2, -4, 0, 14, 14), 3, 15.400304134553597)
((4, 1, -69, -67, 6, 7, 0, -11), 3, 15.418403960705405)
((-5, 1, 34, 20, 4, 3, -9, -35), 3, 15.440119304675655)
((36, -10, 15, -29, -4, 1, 8, 59), 3, 15.460860209290644)
((21, 30, 54, 46, 34, 18, 1, 23), 3, 15.485113428960291)
((24, 30, 43, 66, 6, -8, -8, 61), 3, 15.507798080656666)
((-13, -12, 35, 5, -1, 2, 18, -47), 3, 15.529022498772685)
((-12, 11, 76, 63, 6, 3, -15, -12), 3, 15.551956319572774)
((41, 20, 4, -49, 5, 6, 29, 69), 3, 15.573092359631412)
((-18, 8, 80, 32, 2, 0, -12, -28), 3, 15.60177987705757)
((4, -5, 42, 11, 3, 1, 2, -42), 3, 15.624203956029922)
((15, -31, -17, -4, 3, -1, -14, 96), 3, 15.643129974472997)
((16, 5, -74, 22, 8, -1, -23, -6), 3, 15.66659007235027)
((9, -32, 13, -17, -9, 1, 21, 37), 3, 15.691574264081618)
((-8, -12, 27, 10, 2, 0, 18, 15), 3, 15.711569942109522)
((17, 20, 2, 32, 5, 6, 6, -3), 3, 15.732033738751042)
((17, 11, 74, 30, 4, 0, 3, 22), 3, 15.753835180054612)
((10, -5, 43, 35, -6, -1, 0, 9), 3, 15.774036693429062)
((16, 28, 38, 52, 13, 4, -12, -25), 3, 15.79576857264876)
((-8, -45, -34, -25, -9, 2, -18, -36), 3, 15.816459301334394)
((22, -43, 1, 0, 2, -1, -13, -79), 3, 15.834443950921099)
((16, 19, 59, 5, 4, 4, 5, 11), 3, 15.854898624666372)
((-17, -10, 7, -51, 2, -2, -1, -13), 3, 15.875977076442458)
((4, 27, 93, 65, 20, 10, 13, -2), 3, 15.903566995414034)
((32, 5, -29, -13, -8, -3, -9, -41), 3, 15.926012171083954)
((0, 9, -23, -29, -7, -3, -6, -11), 3, 15.950276224192894)
((-50, 11, 74, 51, 20, 4, 2, 37), 3, 15.972414072295532)
((-1, 22, 42, 23, -1, -2, -3, 20), 3, 15.995798336097762)
((2, 12, 53, 47, 4, -5, -1, -17), 3, 16.02094845050458)
((-64, 6, 21, 23, 5, -1, 10, 84), 3, 16.041802821141626)
((10, -24, -38, -24, -4, -7, -25, 12), 3, 16.066093672758292)
((6, 16, 31, 49, 2, -1, -1, -34), 3, 16.08630031776188)
((-7, -11, -24, -26, -4, 2, 0, -63), 3, 16.1092130418644)
((0, -10, -128, -122, -14, -7, 1, 94), 3, 16.133831747564898)
((8, 13, 26, 62, 5, 1, -3, 35), 3, 16.160765958368803)
((-38, 6, 48, 38, 4, 1, -2, -44), 3, 16.181584977782897)
((15, 19, 33, 22, 23, 65, 9, 3), 3, 16.21162268385344)
((3, -3, -13, 1, -6, -30, -8, -11), 3, 16.232963418896595)
((4, 6, -4, 17, 4, -3, 1, 2), 3, 16.251518819679685)
((7, 5, 12, -8, 0, -2, 2, 7), 3, 16.272419374978973)
((7, 5, 12, -8, 0, -2, 2, 7), 3, 16.291324296724483)
((4, 2, 9, -20, -9, -11, -1, 3), 3, 16.318639958627667)
((0, 4, 14, 8, -1, -1, -1, -2), 3, 16.340648375639816)
((2, -19, 32, 5, -3, -4, -3, 0), 3, 16.359909660519925)
((3, 6, 2, -7, -4, -3, -1, -2), 3, 16.384445689973195)
((-9, 17, 38, -5, -2, -5, -2, 2), 3, 16.40730481706027)
((6, 49, -29, -5, -2, -3, -3, -2), 3, 16.42812326629335)
((11, -78, 9, -17, -3, -1, 1, 4), 3, 16.450981253018394)
((-8, -24, -36, 4, -2, -2, -2, -2), 3, 16.47258028006151)
((-4, 26, 0, 1, 3, 4, 2, 7), 3, 16.49405557782429)
((-4, -36, -54, -33, -8, -3, -1, 0), 3, 16.520616890244145)
((5, -23, -65, -6, 5, -2, -2, -4), 3, 16.540870290090997)
((1, -1, -73, -48, -4, -2, -1, -3), 3, 16.55942226978799)
((-30, -6, 18, -10, -4, -2, -2, 7), 3, 16.580635854464717)
((-7, 0, 14, 19, 1, -1, 0, 3), 3, 16.6037549840948)
((-19, -48, 5, -20, 8, 6, 10, 13), 3, 16.626811393813195)
((-43, -70, -9, 21, 3, 8, 11, 0), 3, 16.649340386092373)
((-94, -83, -16, -40, -44, -16, -26, -72), 3, 16.6682721063456)
((-46, -38, 9, -21, -13, -8, -10, -36), 3, 16.689168670377786)
((-35, 71, 18, -22, -5, -1, -18, 1), 1, 16.735223331351005)
((-41, -39, -3, -22, -7, 15, 17, 4), 1, 16.767881589368177)
((32, -89, -7, -2, -11, -3, 1, -14), 1, 16.789484037497385)
((-71, -54, 5, 14, 6, 0, -5, -14), 1, 16.818858052866045)
((-9, -12, 9, -4, 0, -1, -8, 2), 1, 16.84033164008578)
((-5, 8, 0, 2, 3, -4, -3, 18), 1, 16.86288115888151)
((-59, 17, 2, -7, -6, -3, -10, 28), 1, 16.88770056829942)
((-14, 8, 7, 41, 17, -1, -1, 6), 1, 16.909959864958328)
((-78, 11, -22, -26, -9, -3, -6, -2), 1, 16.932864606526635)
((-78, 11, -22, -26, -9, -3, -6, -2), 1, 16.952294664987292)
((28, -28, 7, 2, 1, 1, 0, 5), 1, 16.974371503721287)
((5, 31, -7, -4, -3, 1, 7, 1), 1, 16.993790728742653)
((-55, -65, 48, 34, 7, -4, -11, -25), 1, 17.016907577648677)
((9, -17, -3, -18, -7, -2, 4, 0), 1, 17.038503753786713)
((15, -23, -21, -31, 15, 22, 27, 17), 1, 17.059331896097053)
((10, -10, -6, -3, -1, 0, 2, 7), 1, 17.080925221330016)
((33, 55, 0, -19, -18, -7, -7, -4), 1, 17.100249226121818)
((-12, 10, -10, -8, -1, -3, -5, 2), 1, 17.121622461482847)
((-28, 18, -11, -8, 4, 6, 13, 17), 1, 17.14184678209791)
((-2, 3, -6, 4, 0, -1, 0, 1), 1, 17.169752011170985)
((-78, -22, -10, -9, 2, -5, -3, -51), 1, 17.196183322319335)
((49, 40, -10, 7, 4, 4, 6, 19), 1, 17.219992370978016)
((5, -2, -3, -28, -7, -1, -4, 15), 1, 17.240297657297262)
((9, -9, -10, 2, 3, 4, 3, 0), 1, 17.264821142768195)
((-79, -46, 26, 17, 9, -4, 4, -13), 1, 17.286586092486782)
((53, 72, -23, 7, 3, -3, 0, 20), 1, 17.308558017913946)
((16, 3, 0, 9, 4, 3, 1, 6), 1, 17.333703570872643)
((-26, -2, -4, -4, 0, 8, 2, 4), 1, 17.356307827045853)
((-55, -63, 58, 0, -13, 0, -10, -26), 1, 17.37571963971402)
((13, 10, -29, 4, 0, -3, 9, 16), 1, 17.395230093697847)
((-17, 12, 3, -9, 2, -1, -5, 4), 1, 17.417008157579787)
((23, -15, -25, -3, -2, 0, -1, -11), 1, 17.44122887693156)
((-11, -36, -3, 7, 1, -8, -1, -2), 1, 17.462413382376504)
((29, 17, -13, 5, 5, 1, 10, 8), 1, 17.48193238907556)
((33, 60, -23, 20, 4, 7, 6, 19), 1, 17.50331189642776)
((26, 4, -3, -4, 3, 1, -2, 3), 1, 17.525751940468542)
((-8, -29, -8, -3, -2, 1, -3, -9), 1, 17.54881861344521)
((-24, 25, -19, 8, -10, 2, 0, -2), 1, 17.56940670954808)
((-15, 18, 2, 1, 5, -5, -5, 8), 1, 17.59189236807009)
((-8, 0, 0, 1, 2, -2, -4, -8), 1, 17.618446838317762)
((-17, -43, 4, 5, 4, 1, 3, -7), 1, 17.641112674040627)
((-7, -29, 0, -15, -4, -12, -4, -8), 1, 17.664350401321908)
((14, -21, 0, -6, 3, -5, -13, 11), 1, 17.684287920886245)
((25, -17, 4, -23, -1, 1, 2, 4), 1, 17.70559387488746)
((-3, 0, -5, 11, 1, 2, -1, 4), 1, 17.729626434504162)
((24, -30, 41, 4, -9, -6, -1, -6), 1, 17.74983935149892)
((-53, -26, 22, -3, -1, -2, -1, -4), 1, 17.77145263306742)
((6, 7, -26, 3, -8, -7, 7, -17), 1, 17.7896739077755)
((6, 8, 15, -1, 3, -1, -1, 2), 1, 17.810550515472148)
((22, 28, 12, 4, 1, -16, -3, 13), 1, 17.832686082850724)
((22, 28, 12, 4, 1, -16, -3, 13), 1, 17.851334423139313)
((3, 1, 22, 3, -2, -3, -1, -6), 1, 17.87297792430163)
((19, 2, -21, -1, -2, 2, -1, 5), 1, 17.891771090568124)
((-2, -10, -26, -4, -3, -4, -2, -1), 1, 17.91406516826897)
((-1, 6, 31, 19, 7, 23, 6, -7), 1, 17.93621499017293)
((-12, 12, -10, 20, 4, -6, -2, -5), 1, 17.955432371114856)
((2, 1, -59, -17, -2, -6, -4, 8), 1, 17.97931098185741)
((22, -28, 0, 5, 9, 42, 13, 18), 1, 18.000694480476717)
((0, 6, -15, 5, -2, -4, 3, -32), 1, 18.02078994018231)
((17, -21, -24, 16, 8, -4, 4, 26), 1, 18.0511446668974)
((19, 15, 53, -7, -2, -13, 4, -21), 1, 18.07212789844392)
((20, -8, -73, -13, 2, -14, -17, -42), 1, 18.094203026634865)
((14, 28, -11, 22, 8, 5, 9, 61), 1, 18.116842634031027)
((42, -42, 12, 8, -1, -7, -1, 38), 1, 18.13892403421314)
((-21, 40, 37, 8, 4, 1, 3, 4), 1, 18.168482218049764)
((-1, -23, 0, 29, 9, 6, 17, -5), 1, 18.188668906717815)
((37, -14, -36, 13, -7, -1, 18, 25), 1, 18.209737095235624)
((6, 27, 119, 6, 5, 2, 0, -6), 2, 18.296145177209407)
((-71, -32, -19, -26, -1, 6, -3, -73), 2, 18.315214881268357)
((22, -44, -34, -38, -8, -2, -1, 82), 2, 18.334420858589976)
((14, 26, 11, 23, 2, -4, 5, -8), 2, 18.36118287472724)
((-7, -4, 56, 15, -3, -3, -1, 14), 2, 18.38071385522762)
((23, -20, 4, -1, 1, 2, -5, -67), 2, 18.40121813472123)
((14, -41, -13, -6, 0, -1, -3, 12), 2, 18.42259137008226)
((4, -21, -31, -22, -4, -1, 2, 28), 2, 18.449933830493165)
((-21, 1, 25, 30, 3, 13, 10, -6), 2, 18.469586259549818)
((62, -31, 24, 19, 8, 10, 11, -20), 2, 18.491795950460393)
((-8, -47, -2, 14, -3, -33, -3, -40), 2, 18.512997561335798)
((-22, -48, -33, -63, -18, -17, -5, -19), 2, 18.53462794833476)
((-38, -58, -10, -6, -6, -13, -7, -10), 2, 18.557197993647044)
((8, -13, -41, -16, 0, -1, 8, 7), 2, 18.577199943666116)
((3, -41, 9, -13, 0, 2, 0, -35), 2, 18.5965085535705)
((-7, -24, 39, -2, 1, -13, 0, 12), 2, 18.61690506885221)
((-20, -25, -37, -18, -3, -9, -5, 7), 2, 18.637238864222226)
((-14, 33, 52, -2, -1, -5, -4, 10), 2, 18.66031865136225)
((1, 15, -39, -2, 2, -6, 3, -19), 2, 18.680973458643916)
((-12, -24, -29, -17, -13, -11, -11, -34), 2, 18.700989663188373)
((-10, -12, -15, 7, 3, 4, 1, 10), 2, 18.7214278016842)
((71, -39, -5, 40, 4, 4, 4, 88), 2, 18.743870696630058)
((8, 6, -24, -28, -3, 15, 0, 8), 2, 18.766111747496478)
((34, 29, -3, -5, -1, 1, 3, 30), 2, 18.78611141679149)
((16, -12, -16, -12, -5, -6, -4, 1), 2, 18.80755934586553)
((-12, -40, 15, 27, 7, 2, -1, 8), 2, 18.832513318003066)
((14, 5, -36, -39, -8, -9, -8, -3), 2, 18.85322286266221)
((-27, 65, 11, 0, -2, -1, -4, -60), 2, 18.879919878163722)
((-9, -19, -28, 19, 3, 2, 2, -44), 2, 18.901032540800728)
((52, -3, 30, 45, 8, 19, 10, 24), 2, 18.92166226011772)
((-18, -27, 7, 10, -1, -14, -3, -8), 2, 18.94427107773905)
((7, -25, -7, -19, 10, 1, 0, 8), 2, 18.967310382026984)
((21, -19, -36, 9, -5, -1, -2, -27), 2, 18.98793325917179)
((24, -22, 9, 4, 2, 0, -3, 14), 2, 19.006863268881972)
((11, -66, -18, -15, -6, -6, -10, -14), 2, 19.026673067898866)
((0, 23, 14, 9, 2, 5, 2, 15), 2, 19.04873850301255)
((0, -9, -11, -10, 0, 10, 0, 10), 2, 19.070092922400075)
((-35, -32, 9, -36, -11, -10, -9, -83), 2, 19.089543507377286)
((-14, -4, 14, 0, 0, -1, -6, 101), 2, 19.10990866270315)
((37, -76, -2, -14, 0, 0, 4, -14), 2, 19.129764076201273)
((-7, -6, 35, 7, 0, 1, 1, -2), 2, 19.150832834900097)
((9, 17, 6, 2, 6, 1, 0, -5), 2, 19.181063262153835)
((1, 15, 7, 12, -3, 0, 0, 6), 2, 19.20229851370915)
((-5, 3, -25, -2, -5, -2, 0, -2), 2, 19.222074101865118)
((-5, 0, -9, 4, -3, 15, 5, 2), 2, 19.248057250735393)
((5, 4, -11, 24, 6, -6, -2, 2), 2, 19.270245844948395)
((-6, -5, -44, -33, -10, -7, 0, 2), 2, 19.29578197190262)
((4, 9, 20, 13, 16, 3, 3, 2), 2, 19.316909459246027)
((-13, 17, 8, -2, -4, 2, -1, 0), 2, 19.336517984364495)
((-5, -2, 0, -12, 0, 3, 2, -1), 2, 19.360825371230604)
((11, 0, 3, -10, 1, 0, 1, 3), 2, 19.38553188480747)
((9, 5, 8, 18, 6, 1, 2, 0), 2, 19.40556348423934)
((-1, -31, -20, -2, 0, 2, 7, 0), 2, 19.426537592889616)
((9, -35, -1, -37, -15, -5, -7, -2), 2, 19.445522339977273)
((-3, -8, -2, -15, -13, -23, -74, -8), 3, 19.510855391261064)
((8, 30, 70, 91, 10, 2, -24, 55), 3, 19.532275381465354)
((-5, -21, 8, -34, -3, -2, 22, 26), 3, 19.55171057155515)
((3, -46, -70, -60, -14, -1, 47, 35), 3, 19.574554303754812)
((33, 3, -47, -9, -2, -11, -39, -7), 3, 19.595595123583884)
((12, 40, 126, 127, 42, 18, 18, 73), 3, 19.617086386415096)
((4, -80, -107, -121, -49, -23, 3, 21), 3, 19.637358032054436)
((45, 35, 50, 8, 15, 18, 41, 105), 3, 19.66167226109273)
((-18, 2, 4, -9, -10, -13, 20, 42), 3, 19.686329168921258)
((24, -82, 1, -63, -11, -9, 16, -57), 3, 19.7087863183925)
((-18, -28, 39, 83, 7, 2, 0, 6), 3, 19.731613515342715)
((-1, -74, 41, 72, 11, 8, -11, 23), 3, 19.75072769352086)
((-29, 13, 53, 10, 20, 13, 5, -67), 3, 19.77552828696526)
((-8, -16, -57, -84, -30, -8, 22, 46), 3, 19.796096426732596)
((-23, 87, 4, 76, 16, 12, 27, -23), 3, 19.81653627577147)
((-20, -72, -81, -36, -29, -7, 5, -20), 3, 19.83663800746823)
((-7, -83, -48, -49, -11, 0, 13, 60), 3, 19.8601796412307)
((-3, 24, 42, 8, 7, 3, -1, -75), 3, 19.88199875814575)
((5, 24, 68, -12, 0, -2, -2, 14), 3, 19.903162166893125)
((4, 10, -25, 15, -6, -2, 16, 59), 3, 19.924069564364597)
((22, -26, 11, -24, 9, -3, 10, 1), 3, 19.944793363549127)
((43, -12, 88, 61, 23, 9, 1, 36), 3, 19.96834811147495)
((19, 18, 54, 27, 6, 1, 0, 52), 3, 19.994041608389416)
((-26, 62, 3, -14, 1, 2, -15, -50), 3, 20.014778521737295)
((-9, 9, 35, 5, -2, 1, 0, -10), 3, 20.035930526864362)
((3, -47, -32, -8, -8, -3, 16, 73), 3, 20.060033218745954)
((33, 16, 11, -33, 6, 5, 7, -54), 3, 20.081823826610233)
((10, -52, -18, 84, 11, -1, 2, -2), 3, 20.1060924411673)
((31, 12, 7, 38, 11, 4, -3, -11), 3, 20.13077956858964)
((-41, 32, 20, -6, -4, -3, -6, -63), 3, 20.151692097690255)
((25, -12, -41, -55, -13, -4, -6, -20), 3, 20.178958724026117)
((-33, -32, -93, -3, -12, -8, -22, -68), 3, 20.204141338750812)
((-7, 38, 114, 116, 22, 4, -7, 17), 3, 20.226169141917484)
((4, -2, 77, 36, -5, -7, 5, 59), 3, 20.24530783787929)
((9, -19, 9, -13, -12, 4, 12, 47), 3, 20.268112227588894)
((-8, 3, 43, 31, 9, 1, 1, -18), 3, 20.286556443073984)
((13, 13, 44, 9, -1, 0, -3, 39), 3, 20.30771243946816)
((-25, -93, -110, -128, -32, -19, -29, -125), 3, 20.328704223729908)
((-11, 13, 10, 20, 4, 6, 11, -21), 3, 20.349025475117585)
((57, 31, -4, -23, -7, 0, 7, 49), 3, 20.366060773313706)
((39, 116, -57, -78, -9, 0, 17, 83), 3, 20.387314270661506)
((-20, -27, 50, 61, 9, -1, -8, -79), 3, 20.409109439973907)
((5, 3, 14, 36, 5, -3, -10, -25), 3, 20.42791286949868)
((4, -10, -8, 49, 2, 0, 4, 4), 3, 20.448460482749457)
((-26, -19, 102, 62, 6, -7, -17, 111), 3, 20.471125178110295)
((7, 28, 32, 2, -12, 0, 0, -55), 3, 20.499058916234137)
((8, -40, 17, -9, -8, -4, 3, -21), 3, 20.519593985502578)
((-40, -11, -16, -38, -9, -11, -26, -11), 3, 20.54941160170119)
((13, 19, 22, 37, 5, 8, 7, 65), 3, 20.576536823145243)
((41, 93, 10, 9, 1, 1, 9, 49), 3, 20.601830052986923)
((5, -13, 43, 7, 6, 2, -1, -33), 3, 20.621478490776468)
((17, -39, -41, -1, -5, -2, -3, 28), 3, 20.64314422899838)
((29, -36, -10, -58, -14, -10, -1, 52), 3, 20.66330525952074)
((-3, 7, -36, 86, 15, 3, -7, -9), 3, 20.685157446934678)
((17, 11, 1, -7, 4, 0, -3, 47), 3, 20.714305100440235)
((6, 3, -49, -2, 5, 5, 11, 7), 3, 20.73566807254299)
((3, 1, 7, -11, -8, 2, 5, 3), 3, 20.75588840189095)
((6, 2, 14, -22, -10, -6, -3, -2), 3, 20.77735229603342)
((1, -8, -6, 33, 6, 5, 3, -3), 3, 20.798023068383518)
((0, -2, -7, 5, 6, -5, 2, 3), 3, 20.82364187158497)
((1, -4, -15, 12, 3, 4, 4, 1), 3, 20.844070887184554)
((-5, -2, -10, 4, -7, -6, -2, -4), 3, 20.865317542360174)
((-4, -1, 0, -6, -1, -1, 0, 3), 3, 20.88586287488689)
((-16, 8, -12, 0, -4, -4, -4, -10), 3, 20.918193278820226)
((-1, -2, -30, 8, 4, 1, 0, -1), 3, 20.94204965250318)
((11, -9, -16, 15, 1, 0, 2, 2), 3, 20.961695809568663)
((20, -19, -3, 11, 5, 4, 4, 11), 3, 20.985780255657765)
((0, -10, -61, -6, -2, -1, -3, -2), 3, 21.012270295450698)
((-8, 24, 26, 6, 2, -1, -1, -3), 3, 21.03313606970805)
((-2, -9, -58, -26, -6, -4, 1, -1), 3, 21.052503978438036)
((0, 2, -35, -8, -3, -1, 1, 0), 3, 21.076840444535925)
((4, 1, 17, 15, -1, -1, 2, 0), 3, 21.097116081442376)
((5, -22, 17, 4, -1, 0, 2, -1), 3, 21.123203003257444)
((-26, -11, -5, -10, -2, -2, -4, -9), 3, 21.143166180967473)
((14, -34, -5, 36, 1, 4, 6, 11), 3, 21.173825384344767)
((-101, -27, -28, -25, -9, -7, -20, -79), 3, 21.248908530991333)
((-49, -11, -5, -35, -6, -9, -35, -50), 1, 21.317022925268084)
((-97, -6, -21, 12, 2, 0, -1, -8), 1, 21.343868758014608)
((13, 17, -6, 10, 2, -2, 9, -3), 1, 21.36402465690783)
((5, 10, -28, 9, -6, -6, 19, -8), 1, 21.382814402088233)
((1, -10, 2, -3, 2, -3, -4, 3), 1, 21.407668592548077)
((50, 67, 4, 26, 8, 2, 19, 3), 1, 21.429588061321827)
((-32, 38, -14, -12, -4, 2, 3, 19), 1, 21.44955922156607)
((15, 16, -14, 5, 8, 3, 2, 30), 1, 21.468626644900958)
((-42, 7, 18, 27, 13, 0, -2, -8), 1, 21.489114389145122)
((-7, 10, -32, -2, 3, 3, -1, 15), 1, 21.51205961356552)
((15, 19, -20, -1, 2, 2, -3, -5), 1, 21.531835201721492)
((0, -7, 21, -21, -10, -6, -19, -15), 1, 21.55159767571411)
((-17, 98, 10, -45, -1, 2, -2, -1), 1, 21.572762224823514)
((28, 98, -6, 4, -1, 0, 6, 14), 1, 21.593888001623874)
((-10, -22, 12, -1, -1, -3, -3, -2), 1, 21.619056361823187)
((2, -102, 59, 20, 7, -4, -18, -15), 1, 21.641386360928003)
((5, -16, 4, 0, 0, 3, -9, 6), 1, 21.662210511971235)
((-100, -2, 33, 15, 14, 0, -4, 0), 1, 21.681085784303942)
((-21, -19, -11, -1, 2, -3, -4, -4), 1, 21.70282222497176)
((-18, -6, -12, -11, -12, 0, 1, 0), 1, 21.730219422760143)
((36, -1, -16, -18, -7, -3, -3, -4), 1, 21.75233389344115)
((10, 9, -1, -3, 3, 3, 3, -1), 1, 21.777609447671352)
((-36, -94, 5, -1, -2, -4, -8, -14), 1, 21.796731038202697)
((-43, 20, -2, 10, 1, -1, 2, -7), 1, 21.817860806270165)
((33, -24, 4, 13, 3, -8, -1, 1), 1, 21.84762824653943)
((-8, 1, 6, -7, -1, 1, -6, -45), 1, 21.868797927277974)
((9, 27, -11, 7, -3, -1, -1, 4), 1, 21.89025897051537)
((-12, -63, -18, -21, 0, 7, 6, 18), 1, 21.913370117611237)
((29, 42, -1, -26, 4, 3, 4, 17), 1, 21.937879348556788)
((7, 0, -11, 6, -2, -1, -1, -5), 1, 21.958499944977532)
((-1, 38, -25, -10, -2, -4, -7, -1), 1, 21.978334831959103)
((-38, -16, -1, 3, 1, -1, -5, 0), 1, 22.00040596888294)
((11, 73, -3, -8, -5, -4, -23, 11), 1, 22.02120446178048)
((20, 24, -21, -10, -2, 0, -2, 3), 1, 22.045389259728285)
((-20, -4, -1, -45, -9, -2, 2, 30), 1, 22.065260638294838)
((-8, -20, 0, 25, 3, -1, 1, 5), 1, 22.086146368887732)
((-8, -21, 6, 25, 6, -1, 6, -9), 1, 22.108332112195658)
((-19, 5, 8, -4, -5, -3, -3, 4), 1, 22.12963635565383)
((-11, 11, 4, 6, -2, 3, 0, -7), 1, 22.154247078820113)
((-20, 2, 1, -7, -6, -3, -2, 0), 1, 22.180851724997133)
((-6, 8, -17, -1, -4, 1, -6, -3), 1, 22.20188228156793)
((17, 11, -16, -3, 0, 0, 0, -2), 1, 22.223025733979767)
((-27, 7, -6, -6, 0, -1, 1, -9), 1, 22.249396605940486)
((52, 2, 36, 3, -1, -2, -3, -1), 1, 22.269462986414297)
((52, 2, 36, 3, -1, -2, -3, -1), 1, 22.288607384186257)
((-34, 8, 9, -4, -9, -6, 0, -7), 1, 22.31170940838588)
((49, 84, -4, -12, -3, -2, 1, 9), 1, 22.332532989248097)
((12, 17, -7, -5, 1, 0, -1, 14), 1, 22.35618865921364)
((-11, -12, -4, 3, -6, 1, 3, -4), 1, 22.376838905047187)
((12, -1, -18, -3, -4, 3, 1, -11), 1, 22.397439545132393)
((1, -7, -15, -1, -1, -2, 1, -4), 1, 22.41600863025985)
((-4, -1, -31, -1, -1, -3, -3, -4), 1, 22.440326280384234)
((1, -1, 22, -7, -5, 6, -4, -5), 1, 22.45940966878755)
((-54, -15, 3, 0, 2, 4, -1, -1), 1, 22.479955001314266)
((4, 5, -12, 3, -1, 5, 3, 2), 1, 22.503009130308598)
((8, 0, -27, 7, 0, -9, 0, 7), 1, 22.526733792177)
((0, -1, 19, 10, -2, -6, -2, -5), 1, 22.54934203961732)
((4, -8, -8, 0, -3, -2, -1, -9), 1, 22.57432965243476)
((26, -10, -27, -4, -5, -10, -3, 3), 1, 22.595154373659007)
((-20, 61, 95, 34, 6, 1, -2, -15), 1, 22.616886823059716)
((9, -10, -70, -14, -5, 1, -4, -73), 1, 22.63956178167883)
((-4, -54, 14, 12, 1, -4, -6, -27), 1, 22.662751613754818)
((-13, 42, -80, -64, -4, -4, -15, -22), 1, 22.68280659060832)
((-14, 15, 19, 14, -2, 2, 4, -49), 1, 22.70282222497176)
((-1, -30, -89, -69, -7, -2, 3, -21), 1, 22.723514664200444)
((-44, 13, -26, 16, -4, -2, -8, 3), 1, 22.74631335209989)
((22, -34, 63, 41, 6, -4, -18, -100), 1, 22.76736785627333)
((6, -74, 69, 1, -6, -4, 20, 21), 1, 22.787595027793472)
((-3, -1, 19, 46, 6, 11, 52, 127), 1, 22.80744759038652)
((-50, 20, -9, 23, 11, 10, 31, -63), 1, 22.827830421323856)
((26, 31, 17, -6, -5, -9, -30, -14), 2, 22.91324695851192)
((12, -22, 34, 21, 2, -3, -10, 27), 2, 22.93942681983249)
((-20, -8, -11, -37, -6, -4, 3, -6), 2, 22.964296975360767)
((-29, -46, -19, -15, -6, -5, -12, 21), 2, 22.98544955066885)
((-1, -37, -26, -36, -8, -4, -7, -6), 2, 23.009918868943323)
((-25, -16, 6, -25, -4, -7, -9, 7), 2, 23.030422008074904)
((-14, 2, 0, 4, -1, 7, 1, 49), 2, 23.057161787152566)
((9, -94, -20, -8, -7, 3, -1, -43), 2, 23.079709025224236)
((-10, -24, -22, -22, -8, -7, -3, -47), 2, 23.0990278983869)
((29, -10, -15, 58, 5, 5, 9, 61), 2, 23.12129973902815)
((-40, 3, 43, 35, 6, -7, 1, 22), 2, 23.145055190671382)
((-82, -10, -53, 7, 1, 0, -2, -30), 2, 23.172857216980674)
((13, 112, 106, 6, -1, 7, 7, -12), 2, 23.19515642631066)
((32, -2, 21, -21, -6, 2, 5, 4), 2, 23.216870059737865)
((-2, -15, -8, 13, 3, 0, 4, -16), 2, 23.23731732112994)
((-7, -30, 72, 36, 2, 0, -5, -118), 2, 23.25932687850412)
((-15, -13, 26, -20, -3, -5, 4, -48), 2, 23.28028160099987)
((15, 33, -27, -13, -4, -1, -1, 22), 2, 23.304220080749037)
((11, -7, -33, 11, 5, 3, 3, 61), 2, 23.323462549655638)
((20, 0, 63, 14, 1, 7, 6, 2), 2, 23.345945357272573)
((-12, -24, -66, -43, -15, -3, 4, 10), 2, 23.373608259414116)
((-1, 3, 11, 19, 3, -1, -3, 25), 2, 23.393437444585533)
((14, -19, -15, -3, 1, 2, -1, -12), 2, 23.413626413977646)
((-11, -3, 28, 1, -1, -1, -2, -36), 2, 23.43565649786838)
((20, -1, 15, -4, -3, 0, -2, -25), 2, 23.45682389788286)
((20, -1, 15, -4, -3, 0, -2, -25), 2, 23.47714343872749)
((12, -16, -41, 0, -1, -1, 0, 29), 2, 23.498968257452695)
((22, 24, 40, 22, 10, 9, 7, -47), 2, 23.520384256389875)
((-23, 10, 80, -29, -5, 2, -3, 16), 2, 23.544144269481233)
((-35, -2, -29, 10, 1, -3, 2, 3), 2, 23.568595341963213)
((-48, 3, 0, -3, -3, -2, 3, 52), 2, 23.591874692458614)
((12, 21, 42, -4, -3, 4, 4, 31), 2, 23.611988968137716)
((2, -21, -55, -50, -11, -16, -4, 20), 2, 23.632383202695358)
((0, 20, -35, -11, -3, -4, 2, -20), 2, 23.653722227195466)
((-13, -13, 23, 35, 9, 10, 0, -47), 2, 23.675196954777235)
((14, -2, -28, -26, 0, 0, 1, 16), 2, 23.69992171414659)
((39, -86, -54, -6, -8, -12, -5, 76), 2, 23.724003309330612)
((-13, -40, 10, -6, 6, -2, 0, -28), 2, 23.74417574347328)
((-1, 21, -9, 12, 1, -3, -1, -3), 2, 23.771706933800274)
((-57, 0, 65, 26, 2, 2, 1, -8), 2, 23.791478530689137)
((-6, -4, 17, 15, 2, -1, -3, -17), 2, 23.811904125202627)
((17, 10, 45, 24, 5, 0, -4, 27), 2, 23.833072095398126)
((-9, -13, -78, -49, -4, -4, -1, 2), 2, 23.85739829823774)
((4, 21, 81, 59, 14, 8, 3, -6), 2, 23.87882969206234)
((18, 0, 19, 2, 0, -4, 4, -7), 2, 23.89686793866449)
((-9, -13, 57, 16, -4, -2, -1, -12), 2, 23.920728873795564)
((-2, -3, -7, -8, -1, -3, -2, -3), 2, 23.940669814445993)
((11, -3, 15, 2, 3, 0, -1, 0), 2, 23.964241667802277)
((9, -6, 17, 0, -3, -5, -4, 0), 2, 23.989526344928723)
((14, -3, 50, 28, 6, -2, 0, 0), 2, 24.00865534781327)
((0, 0, -90, -16, -7, -4, -4, -4), 2, 24.028206854830202)
((11, 3, 25, -14, -9, -1, 0, 1), 2, 24.048972847409868)
((3, 2, 5, 2, 2, 5, 0, 0), 2, 24.07152122584357)
((0, -1, -7, -16, -5, -4, -1, -1), 2, 24.094493818952703)
((-2, -11, -26, -24, -9, -6, -4, -3), 2, 24.115310557642736)
((4, 5, 4, -1, -4, -2, -1, 3), 2, 24.138656619316933)
((-12, 10, 14, 27, -1, 1, 1, 0), 2, 24.16306777912784)
((-11, -12, -9, 1, -5, -7, -3, 1), 2, 24.193244609366136)
((24, 13, -11, -14, 0, -2, 3, 6), 2, 24.212634184974704)
((-2, 18, 8, 0, -1, -2, -5, -8), 2, 24.235366161695353)
((33, -31, 14, 0, -1, -5, -5, -8), 2, 24.259757935351736)
((-32, 4, -1, -44, -15, -3, 39, 8), 2, 24.28170420263321)
((-7, -41, -14, -13, 1, -1, -3, -3), 2, 24.308061960430578)
((2, -15, 104, 68, 13, 4, 27, -46), 3, 24.3485510845128)
((8, 10, -53, -74, -8, 6, -82, -41), 3, 24.37026642848305)
((-16, 49, 81, 55, 4, 10, -10, -70), 3, 24.394417015569932)
((-9, -52, 6, -39, 10, 12, 77, 82), 3, 24.41329399844569)
((6, -14, 1, 23, 18, -2, -4, -9), 3, 24.434123851299073)
((9, -33, -54, -18, -19, -7, 6, 65), 3, 24.454239267340203)
((-59, -16, -114, -107, -32, -9, -24, -33), 3, 24.475504738489327)
((19, 3, 2, -12, -5, 15, 39, 93), 3, 24.500695905929256)
((10, 84, 64, 84, -12, -8, 14, 53), 3, 24.521807428204234)
((1, -13, -29, -51, -13, -4, -17, 114), 3, 24.54217543443517)
((-13, 13, 0, 20, 13, -15, -61, -42), 3, 24.562335894776513)
((-2, -8, 28, 82, 6, 7, 12, 37), 3, 24.592674656423174)
((8, 11, 9, 9, 8, -2, -18, 16), 3, 24.618402364198563)
((37, 43, -3, -82, -11, 16, 65, -5), 3, 24.64092166340048)
((-35, 20, -47, -68, -16, 1, -17, -46), 3, 24.659787812836942)
((40, 33, 32, 45, 20, 4, 27, 0), 3, 24.68106126652028)
((14, 35, 68, 16, 1, 2, -6, -8), 3, 24.71017071789781)
((15, 20, 42, 50, 11, 4, -1, -51), 3, 24.730083719678486)
((11, 94, 7, 53, -1, 5, 23, -81), 3, 24.750406111428195)
((-7, 17, 0, 7, -9, -3, -33, -13), 3, 24.771469168316866)
((-7, 17, 0, 7, -9, -3, -33, -13), 3, 24.791028087687)
((-19, 40, 65, -15, -1, -1, 15, 10), 3, 24.815904515206444)
((1, -36, -107, -85, -27, -6, 0, 36), 3, 24.837025160377664)
((1, -36, -107, -85, -27, -6, 0, 36), 3, 24.856515087844937)
((-58, -1, 58, 56, 6, -2, -18, -61), 3, 24.880553919452808)
((22, 36, 25, -76, 8, 14, 25, -2), 3, 24.905437189144436)
((-16, -6, -16, 23, 5, 4, 9, -40), 3, 24.927177050898347)
((-6, 32, 7, 33, -1, 2, -21, 20), 3, 24.947259966621605)
((-10, -54, -89, 16, -9, -5, -28, -4), 3, 24.97168481077688)
((14, 48, 127, 105, 12, 4, -10, 13), 3, 24.99360256900758)
((-25, 24, -2, 8, 3, 8, 18, -16), 3, 25.019179178813896)
((40, 24, 5, 15, 4, -3, 37, 98), 3, 25.041400843525793)
((-18, 53, 22, 43, 14, 1, 6, -11), 3, 25.061402793544868)
((-25, 13, 62, 93, 27, 13, 18, 10), 3, 25.084182665470806)
((13, 30, 30, 73, 9, 3, 7, -17), 3, 25.107190609802895)
((22, 56, 27, 51, 17, 10, -1, 70), 3, 25.127862522515024)
((-54, 26, -2, -38, -1, 3, 6, 0), 3, 25.147380959033065)
((11, 80, 39, 62, 21, 7, -31, -42), 3, 25.173270598216817)
((-23, 0, -61, 16, 1, -2, 12, -10), 3, 25.19950690745791)
((-22, -69, 23, 16, -2, -6, 8, -16), 3, 25.22250972016086)
((12, 17, -41, -5, 2, 2, -3, -2), 3, 25.242110262745115)
((-3, -23, -29, -77, -15, 0, 8, 19), 3, 25.26183339424767)
((-3, 55, 92, 45, 7, 1, 1, 2), 3, 25.283627993379056)
((-2, 8, 56, 21, -9, -3, 7, 24), 3, 25.304564470082315)
((-40, -16, -32, -65, -14, -11, -26, -38), 3, 25.325856739739166)
((10, 111, 18, -25, -2, 8, 25, 90), 3, 25.346735628159873)
((-5, -31, -40, -8, -13, -8, 0, -7), 3, 25.368545051997657)
((-28, -23, -54, -2, 3, 5, 1, -21), 3, 25.391201764824277)
((-2, -8, 13, -8, -5, 1, -3, -6), 3, 25.415612924635184)
((4, 2, 6, -39, -4, -3, -5, 20), 3, 25.439448771801583)
((-19, 14, 13, 12, 18, 8, -1, -47), 3, 25.459947919666057)
((-44, 4, -2, -16, -4, 0, -3, -56), 3, 25.479677323159784)
((1, -23, -24, -43, -12, -5, 3, 4), 3, 25.504417477416556)
((11, 1, 2, 2, -8, -3, 5, 10), 3, 25.52802468199579)
((-11, -20, -54, -55, -9, -4, -8, -15), 3, 25.549043834946282)
((13, 0, -8, -13, -12, 0, -1, -13), 3, 25.569561228603245)
((-3, -9, -15, -6, -1, 1, -3, -10), 3, 25.592793824255388)
((6, -23, -63, -17, -8, -3, -3, -4), 3, 25.61453710709539)
((2, -6, 14, 17, 2, 2, -3, -4), 3, 25.634542478200554)
((2, 11, -8, -7, -4, -1, 0, -6), 3, 25.654172670197607)
((7, -13, 1, -1, -1, 2, 2, 1), 3, 25.674428920949534)
((-1, -2, 14, 18, 5, 1, 1, 0), 3, 25.696218388451783)
((-5, 11, 47, -19, -3, -4, -2, -1), 3, 25.72015800856298)
((-4, -14, 35, 11, -3, -1, 0, -3), 3, 25.740456452710042)
((35, 65, -25, 18, 4, 1, 3, 7), 3, 25.762475132980466)
((-9, -25, -24, -3, -1, -2, -2, -4), 3, 25.78620606684004)
((-4, 5, 2, -5, -2, 1, 0, -6), 3, 25.807966455110503)
((-2, 3, 21, 10, -2, -1, -3, 3), 3, 25.83416342186154)
((-20, -37, 22, -81, -21, -10, -8, -11), 3, 25.85523617182747)
((1, 5, -10, 18, 6, 4, 1, -2), 3, 25.876363088989862)
((4, 6, -4, 23, 4, 2, 1, 2), 3, 25.89488256836898)
((-5, 9, -5, 4, -2, -3, -3, -3), 3, 25.91948017737191)
((-3, -6, 31, -21, 0, -2, -1, -2), 3, 25.942750404971065)
((-7, -23, 62, 28, -8, -6, -4, -4), 3, 25.96159887879605)
((-15, 9, 70, 53, 7, 0, -5, -16), 3, 26.027990186044363)
((13, 7, 39, 14, 5, 2, 4, 3), 3, 26.04820310303912)
((-9, -11, 6, -19, -2, -4, -6, -9), 2, 26.088167660587207)
((0, 4, 3, -3, 7, 3, -2, 3), 2, 26.10758232416045)
((-12, 36, 52, -25, 24, 7, 1, -19), 2, 26.13302437124714)
((-9, 44, -89, -39, -16, -12, -14, -40), 2, 26.15593367426357)
((-83, -9, -19, 25, 11, -9, -4, -12), 2, 26.18501575695236)
((94, 28, 0, -15, -7, 1, 3, -3), 2, 26.204131645673552)
((26, -11, -9, -28, -6, -7, -11, -8), 2, 26.22795323831457)
((52, -1, 31, -15, -17, -30, -74, -74), 2, 26.253790420844904)
((61, -16, -57, -7, 4, 3, -17, 81), 3, 26.27335504202519)
((24, 54, -1, -4, 4, 20, 61, 77), 3, 26.294111341527596)
((-32, -19, 42, -9, -14, -12, -7, -15), 1, 26.361861390135527)
((-4, 78, -28, -1, -4, -2, -7, 2), 1, 26.385667587889127)
((-90, -98, -6, -6, -8, -5, -12, -3), 1, 26.406816171930103)
((2, -16, -1, -7, -7, 1, 8, -6), 1, 26.42888616849191)
((6, 86, 20, -2, 5, -1, -8, -10), 1, 26.452759647605326)
((2, -27, -5, 4, 0, -2, 1, 1), 1, 26.47462551936363)
((24, -4, 1, 22, 15, 9, 2, -3), 1, 26.495245545603364)
((15, 24, -9, -6, -7, -3, 0, 9), 1, 26.515599297308917)
((-4, -26, 6, 1, -3, -2, 1, 7), 1, 26.539144922338494)
((-100, -32, 9, -30, 1, -3, -9, -20), 1, 26.560194865063814)
((27, 14, -16, 5, -5, 0, 2, 15), 1, 26.582932543594616)
((37, 85, 10, 22, 2, 3, 6, 9), 1, 26.60423108524263)
((-58, -43, 53, 3, -4, -5, -8, -14), 1, 26.62336578993733)
((1, 35, 4, -18, -7, -1, -2, -3), 1, 26.65086676067051)
((31, 7, -14, -5, 0, 0, -3, 3), 1, 26.671754771987462)
((22, -4, -12, -16, -4, 0, -9, 2), 1, 26.690965310757207)
((-4, -18, -1, 3, -3, -4, -12, -14), 1, 26.71488554471388)
((-17, 4, -15, -4, 1, 0, 2, 5), 1, 26.74089720263492)
((9, -14, 5, -32, 7, 0, 2, -3), 1, 26.760875775232364)
((16, 23, -6, 17, -2, -2, -2, 4), 1, 26.78323884483607)
((-36, 6, 11, -3, -6, -8, -5, -4), 1, 26.804426771367105)
((72, 27, -11, 2, 4, 2, 0, 12), 1, 26.82605772854708)
((3, 20, -6, 10, -3, -1, 6, 0), 1, 26.849755591907762)
((15, -9, -2, -9, -5, 0, 0, 5), 1, 26.86993315767957)
((0, 14, -13, -2, -4, -2, -2, 0), 1, 26.890782966868493)
((15, 49, -11, -11, -3, 3, 4, 9), 1, 26.913967667315344)
((17, 15, -13, 2, -1, 2, 7, 2), 1, 26.935111689908194)
((9, 1, 8, -12, -2, -2, -2, 0), 1, 26.96743012004021)
((38, 66, 0, -9, 2, 2, 10, 10), 1, 27.00310406544766)
((18, 108, -7, 0, 6, 5, 4, -5), 1, 27.020586385559824)
((13, -54, 13, -6, -7, -4, -2, 1), 1, 27.043732313697628)
((7, -5, 9, -11, -2, -1, 1, -2), 1, 27.069222826170623)
((39, 5, -6, -23, -5, -1, -1, 8), 1, 27.093478326564334)
((13, -29, 0, -5, -1, 0, 3, 2), 1, 27.12484284385764)
((9, -1, 0, 0, -2, 2, 0, 3), 1, 27.167504927789427)
((31, -18, -9, -14, -1, 1, 1, 2), 1, 27.20323874220349)
((2, -24, 2, 10, 0, -2, -3, -4), 1, 27.223804031065743)
((19, 30, -1, 8, -6, -4, -6, -3), 1, 27.245409900281043)
((3, -3, -5, 1, -5, -7, -7, 4), 1, 27.26579501194244)
((45, -21, 8, -5, 1, -5, -13, -15), 1, 27.287218993413838)
((30, 13, -3, -2, -1, -3, -3, 5), 1, 27.30647286594075)
((1, -17, 6, 1, -5, 9, 2, -3), 1, 27.327189252772076)
((-19, -26, 6, -11, -6, -11, -5, -7), 1, 27.350277022446317)
((8, -6, 3, -16, 0, 14, 6, -1), 1, 27.373250755917482)
((0, 10, 1, -2, 3, 8, 0, -5), 1, 27.398281132311073)
((10, -7, 15, -4, -3, -6, -6, -1), 1, 27.418679358135826)
((11, -1, -14, 4, 5, 9, 3, 1), 1, 27.44046825545706)
((11, 3, 15, 8, 4, -1, -1, -1), 1, 27.468993271293837)
((2, 0, 17, -4, -8, -8, -2, 2), 1, 27.490234224659304)
((0, -4, -3, -2, 4, 3, 0, -3), 1, 27.513524408593998)
((18, -32, 20, 5, -1, -4, 0, 8), 1, 27.537843199080413)
((-2, 3, -8, -2, 1, -1, 0, -1), 1, 27.56140250845436)
((-3, 4, 2, 3, 2, -2, 1, -9), 1, 27.589422343911522)
((-3, 3, -13, -28, -7, 2, 1, 7), 1, 27.607121902990542)
((-4, -1, -14, -2, 0, 10, 1, -13), 1, 27.62688551734519)
((8, 3, -14, 0, 0, -6, -1, 16), 1, 27.64844634226028)
((-9, -35, -4, 3, -2, -5, -8, -10), 1, 27.67168007827445)
((19, 60, 29, 11, 1, -1, 4, 72), 1, 27.697036598208832)
((-5, 14, 24, 7, -1, -6, -9, -1), 1, 27.717112101578888)
((3, 7, 9, 26, 3, -2, 4, -5), 1, 27.737038217522915)
((6, 4, -9, -4, 0, -2, -18, -65), 1, 27.758090440972296)
((9, 27, 3, 7, 5, 10, 34, 29), 1, 27.78039478193142)
((35, 0, -7, -14, -5, 0, -32, 127), 1, 27.802274338034096)
((-3, 32, -1, 31, 7, 19, 64, -49), 1, 27.821829836318138)
((-15, 9, 68, 56, 12, 6, 2, -42), 2, 27.931239020451823)
((-1, 3, 32, 14, 4, 7, 10, -20), 2, 27.955485397949285)
((-42, -10, -26, -10, -1, 7, -8, -78), 2, 27.98039432578661)
((14, 6, 15, 29, -1, -7, -18, 87), 2, 27.999494819620384)
((-9, -79, -57, -108, -22, -10, -1, -15), 2, 28.02169310691065)
((6, 3, 35, -3, 3, 1, -8, -61), 2, 28.04063337987911)
((-6, 6, 38, 25, 0, -5, -5, 118), 2, 28.06294684373448)
((2, 16, 14, 50, 10, 5, 4, -92), 2, 28.08621878187668)
((-7, 15, 19, 19, 2, -2, -3, 8), 2, 28.110737135718477)
((37, 3, 13, -16, -1, 0, 7, 81), 2, 28.13162628739746)
((-18, -23, -37, -8, -2, -9, -11, 29), 2, 28.154146726961407)
((-54, 1, 70, -1, 3, 4, 7, -48), 2, 28.19533489296847)
((36, 17, -33, -21, 1, 3, 0, -10), 2, 28.217106684859242)
((-5, -1, -14, -5, -4, 0, -1, -38), 2, 28.237408550092397)
((-46, 5, 45, 33, 0, -8, -8, 29), 2, 28.266609800613402)
((59, 16, -74, -3, 2, 2, -3, 109), 2, 28.292547905183458)
((-31, -3, 27, -5, 0, 5, 2, -1), 2, 28.314375574813734)
((27, -14, -105, -22, -8, -7, -3, 35), 2, 28.333651114219233)
((-8, 12, 18, -3, -3, 1, 2, -30), 2, 28.356867744802944)
((27, 11, 21, 13, 3, 0, 1, 7), 2, 28.382350844922737)
((-15, 94, 59, -10, 2, -1, 4, 30), 2, 28.405144971374064)
((24, 9, 34, 23, 6, 7, 7, -39), 2, 28.425072797861137)
((-5, -20, -17, -2, -2, 0, -2, 23), 2, 28.44619572375642)
((9, -21, -2, 7, -2, -2, -4, 8), 2, 28.46906910536888)
((12, -3, 7, 6, -3, -1, -3, 5), 2, 28.49420838633641)
((12, -14, -27, -55, -8, -1, -1, 94), 2, 28.516060003569333)
((-6, 2, 7, 6, 2, -5, 0, -11), 2, 28.535196988988094)
((-10, 1, -1, -12, -1, -2, -3, 16), 2, 28.556001753876803)
((-4, -3, 49, 16, 5, 3, 3, 2), 2, 28.578579211542287)
((26, -15, -71, -28, -5, 5, -4, -31), 2, 28.60133684640863)
((13, 14, 23, 2, 0, -7, -1, 20), 2, 28.62217069052912)
((-7, -19, 6, 26, 3, 1, 1, 10), 2, 28.646362900830127)
((-8, 18, -28, -34, 1, -2, -2, 5), 2, 28.66718705187336)
((-9, 0, -16, -17, 0, 6, 3, 4), 2, 28.69469258405466)
((-1, -1, -9, 6, -3, 2, 4, 48), 2, 28.71648433228097)
((1, 12, 4, 12, 3, 1, 1, 32), 2, 28.73638307953626)
((17, -18, -23, -11, -3, 4, 3, 4), 2, 28.758329346817735)
((-4, 0, -34, 4, 1, 0, 0, 13), 2, 28.778837047397438)
((-4, 1, 30, -11, 0, -3, 3, -38), 2, 28.805657792179282)
((1, -10, 14, 6, -1, 2, 0, -19), 2, 28.82599785954047)
((-2, -18, -62, -17, -4, -2, -2, -2), 2, 28.847712633329703)
((2, 0, 26, 7, 1, -3, 2, 37), 2, 28.865905398987017)
((0, -3, 20, 28, 1, 5, 0, -12), 2, 28.886801392838183)
((6, -1, 31, 8, 3, -1, 0, -14), 2, 28.907411155819638)
((-3, -4, 5, 0, 0, 0, -1, -15), 2, 28.92835447469508)
((2, 0, -2, 3, 1, 1, 1, -19), 2, 28.9465957057387)
((-4, 9, 17, 7, 0, 6, 3, -3), 2, 28.967657052084324)
((-2, 11, 25, 11, 2, 4, 3, -2), 2, 28.993570068689706)
((-5, -4, -9, -22, -4, -2, -3, -20), 2, 29.01478821481456)
((3, 12, 43, 11, 4, 3, 1, 1), 2, 29.036550313628066)
((-6, -6, -34, -10, -6, -8, -4, 6), 2, 29.054806939559104)
((-2, -2, 5, -8, 7, 6, 2, 4), 2, 29.082082118610195)
((0, 3, 8, 25, -3, -4, -1, -1), 2, 29.105067255701666)
((0, -1, 8, 13, 6, 2, -1, 2), 2, 29.129601574611893)
((-6, -6, -15, -5, -6, -5, -3, -4), 2, 29.151127048304026)
((1, -3, -4, -13, -1, -1, -1, 2), 2, 29.178439859302134)
((22, 16, 28, -10, -6, 6, 6, 2), 2, 29.204564413064215)
((-12, -2, 8, 11, 1, 2, 5, 9), 2, 29.224700925802914)
((7, 1, 6, 5, 6, 1, -3, -4), 2, 29.24565279739359)
((-6, -8, -53, -6, -1, -5, -2, 4), 2, 29.266518001469926)
((-33, 6, 14, 4, 3, 2, 2, 3), 2, 29.286977236663322)
((23, -19, 19, -4, 2, 0, 13, 1), 2, 29.310130006973313)
((6, -13, -17, -22, -9, 1, 3, 1), 3, 29.3498533779519)
((-100, 2, -66, -64, -10, -23, 5, -76), 3, 29.367506182187658)
((86, 118, 45, 88, 40, 33, -12, -6), 3, 29.38831436816246)
((7, 1, 39, 28, 3, 0, 2, -5), 3, 30.81037033827129)
((-38, -20, -69, 5, -3, -3, -5, 88), 3, 30.83290446217961)
((-12, 12, 12, 31, 22, 6, 3, 36), 3, 30.85457419166863)
((7, 3, 26, -22, -1, -1, 13, 3), 3, 30.873891924469262)
((2, -13, 3, 3, 2, -3, -1, 2), 3, 30.892782021508367)
((-15, 10, 11, 18, -2, -2, -9, 5), 3, 30.91540509365508)
((28, 31, -6, -33, -8, -4, 4, 13), 3, 30.939217563399854)
((-13, -94, 23, -6, -2, 0, -3, 107), 3, 30.962181603793756)
((-32, -26, -72, 2, 0, -2, -7, -70), 3, 30.98179811144644)
((-10, 10, -4, -7, 0, 3, 9, 36), 3, 31.000283950145654)
((-41, 27, -8, 7, -2, 1, 9, -44), 3, 31.026611488349207)
((-3, 37, 34, 7, -1, -1, -11, -11), 3, 31.05680827492304)
((48, 8, 30, 26, 6, 3, -11, 53), 3, 31.078956386283952)
((13, 5, 17, 9, -1, 2, 1, -11), 3, 31.101700336805926)
((-7, 20, 31, 30, -3, -8, -9, -7), 3, 31.12879362811312)
((-15, 11, -49, 4, -21, -3, 9, -19), 3, 31.158936817671506)
((36, 11, 39, 34, 15, 3, 2, 54), 3, 31.19338544407693)
((-32, 33, 58, 22, -2, -2, -13, 10), 3, 31.216046718351674)
((19, 13, 1, 17, -2, -2, 7, 23), 3, 31.244233046665325)
((1, -3, -14, -1, -13, -4, -1, -1), 3, 31.491194979670198)
((1, -3, -14, -1, -13, -4, -1, -1), 3, 31.511934743923153)
((-1, -1, 1, -20, 0, -8, -5, 1), 3, 31.541563060024664)
((-5, -2, 10, 19, -16, -7, -2, -1), 3, 31.569243637777685)
((2, 5, -18, 2, -4, 0, -3, 1), 3, 31.5962228928818)
((-6, 71, 20, 0, 3, -2, 1, 4), 3, 31.62577309418421)
((-5, 104, 5, 12, -6, -3, 2, 5), 3, 31.64978398692233)
((1, -83, 31, -2, 2, 1, -2, -1), 3, 31.673649483501528)
((-1, -20, 8, 0, -7, -3, -1, 0), 3, 31.69649663678728)
((21, 16, -20, 3, -8, -1, 13, 4), 1, 31.978898170802285)
((-13, -19, -2, 5, -4, 13, 5, 8), 1, 32.00812621983101)
((98, 3, -10, 38, -1, 4, 14, 44), 1, 32.03392520023332)
((-13, 3, -23, -3, 0, -1, 1, 7), 1, 32.06332544392868)
((-31, -12, 23, 0, -5, -3, -2, -3), 1, 32.08786546464906)
((-16, 13, 0, 8, 1, -4, -4, -6), 1, 32.10666490290673)
((-8, -4, 7, -10, 2, -4, -5, 12), 1, 32.13171751635992)
((-12, 9, 2, 6, 9, 1, 5, -1), 1, 32.159734500912)
((13, 3, 10, 6, 5, 3, -9, -12), 1, 32.19978515579341)
((-24, -16, -6, -15, 1, 12, 5, 4), 1, 32.22377039038584)
((37, -6, -1, 1, 2, 3, -4, -2), 1, 32.246987591150564)
((1, 0, 0, 0, 1, -2, -9, -19), 1, 32.273604211128905)
((-33, -5, 1, -22, -8, -5, -14, -7), 1, 32.29687329836603)
((-21, 32, -1, -26, -6, 1, -1, -15), 1, 32.32683288963747)
((-68, -50, -5, -1, 7, 3, 0, -11), 1, 32.350762816671406)
((2, -2, -5, -11, -2, -1, 6, 0), 1, 32.37890923231398)
((-12, -14, 7, 26, -6, -9, -14, -17), 1, 32.40165432319799)
((0, 1, -2, 1, 0, 1, -1, 6), 1, 32.42724347698664)
((58, 19, 5, 8, -2, -1, -1, 2), 1, 32.45121046578657)
((8, 1, -5, 3, 6, -2, -6, -24), 1, 32.47789721802981)
((16, 14, -7, -2, 0, -1, -4, 3), 1, 32.500420508498834)
((3, -46, -10, -3, -2, -2, 3, 3), 1, 32.52327336359474)
((12, 67, -1, 2, 8, 3, 2, 5), 1, 32.54544827346338)
((7, 13, -5, -6, 0, 1, -5, -3), 1, 32.56755818269626)
((-1, -32, 13, -12, -4, -2, -26, -24), 1, 32.59045266100629)
((-18, -11, 26, -4, -6, -1, -5, 2), 1, 32.6160104548391)
((-40, -43, -7, 3, 4, -1, 8, 13), 1, 32.6389300211138)
((-7, -16, 1, -16, -7, -4, -5, -5), 1, 32.66558541340119)
((27, 4, 4, 2, 3, 6, 8, 22), 1, 32.69236510514993)
((11, 4, -2, -9, -9, -4, -5, 1), 1, 32.71618042579978)
((-19, -4, 4, -1, 8, 3, -5, 5), 1, 32.73980302526643)
((39, 120, -19, 6, 3, 3, 6, 10), 1, 32.76281553104664)
((-16, 30, 9, -12, -8, -2, 4, 9), 1, 32.791668400967254)
((2, 5, -1, 5, 2, 2, 1, -12), 1, 32.81526420192618)
((-6, 16, -1, 3, 2, 0, 0, 1), 1, 32.838553815679866)
((-11, -13, 1, -1, -4, -2, -2, 3), 1, 32.86189132463883)
((26, 18, -16, 5, 0, 1, 1, 0), 1, 32.89012953942488)
((56, 15, 0, 11, 2, 4, 5, 10), 1, 32.9116247935232)
((-5, 2, -8, 2, 5, 2, -1, 7), 1, 32.93336921672523)
((-9, 26, -2, 4, 7, 1, -8, -1), 1, 32.96092435465487)
((4, -8, 3, 8, -3, -3, -2, -13), 1, 32.98670280854063)
((-31, -44, 6, -6, -8, -5, -2, -5), 1, 33.01664814528669)
((-6, 12, -4, 0, 0, -1, -2, -2), 1, 33.04099886590996)
((-4, 5, 5, 3, -4, -3, -9, -5), 1, 33.06421207540758)
((3, -8, 11, -10, -3, -13, -6, -1), 1, 33.08674220804879)
((-6, -6, -4, 2, -5, -3, -2, 1), 1, 33.113205449334004)
((-2, 2, -5, -13, -1, -3, -1, -2), 1, 33.1365885727742)
((1, -5, -18, -3, 1, 0, 1, -4), 1, 33.1645987151541)
((-15, 4, 1, 4, -3, 3, 0, -1), 1, 33.19633213956435)
((11, 0, -10, 2, 4, -1, -2, -6), 1, 33.21390454827694)
((2, 1, 3, 0, -8, -7, -2, 1), 1, 33.23885167824229)
((-14, -28, 6, 0, -2, -3, 0, -2), 1, 33.306540147300566)
((-4, -4, 3, 2, -2, -3, -1, 2), 1, 33.328624968568775)
((2, 5, -15, 11, 2, -1, 0, -1), 1, 33.346154043524194)
((3, 6, -11, -6, -2, -1, -1, 4), 1, 33.366478145816956)
((0, 5, -5, 3, 0, -3, -1, -5), 1, 33.38844722033904)
((-7, 6, -25, 27, 1, 1, -1, -1), 1, 33.41075042093613)
((11, -8, -13, -2, 2, 3, 2, 12), 1, 33.432111682495844)
((6, -31, 44, 23, 4, 0, 1, 20), 1, 33.45274482289893)
((-9, -10, -49, -10, -4, -3, -6, -8), 1, 33.472581420423545)
((0, 15, 28, -33, -4, 2, 1, 5), 1, 33.4946160657624)
((1, -9, -10, -51, -18, -10, -4, 7), 1, 33.5135911197728)
((21, 19, -18, 15, 6, 2, -1, -11), 1, 33.533312540732304)
((-34, -21, 11, -6, -1, -3, -2, -34), 1, 33.55440410667175)
((5, -26, -68, -43, -8, -4, -1, -50), 1, 33.57581611434182)
((26, -24, -80, -1, -3, -2, 36, 124), 1, 33.60603342743221)
((11, 7, -12, -10, -4, -21, -20, -32), 1, 33.627650700267814)
((-29, -38, 39, 26, -5, 0, -1, -4), 2, 33.716637710974105)
((5, -28, 53, -4, 2, 3, 2, 18), 2, 33.73611224355396)
((1, -17, -10, 5, -2, 0, 2, -6), 2, 33.756734550517756)
((24, 12, 45, 27, -5, -6, -10, -42), 2, 33.77624101323447)
((0, -10, 0, 34, 7, -1, -2, 86), 2, 33.79752815126218)
((-11, 0, -42, -40, 1, 4, 4, -12), 2, 33.81979486027429)
((1, 23, 24, 18, 2, 7, 2, -14), 2, 33.839139961763664)
((3, 6, 9, 17, -2, -6, 1, 22), 2, 33.859280465769466)
((-46, -36, 28, 8, -2, -1, 7, 40), 2, 33.879801280512524)
((1, 0, 8, -8, 1, 1, 4, 63), 2, 33.90275049620003)
((-10, -13, -8, -8, 0, 4, 4, -8), 2, 33.924295356046684)
((17, 5, -13, 20, -2, 1, -1, -31), 2, 33.9446069143571)
((23, 5, 46, 30, 3, 0, -1, 66), 2, 33.9647993048353)
((-19, 0, 20, 26, 6, 0, -4, 12), 2, 33.990501354465)
((9, -9, -26, 2, -1, 0, -1, -23), 2, 34.0119179235832)
((3, 3, -10, 19, 0, -2, 1, 3), 2, 34.03296045395532)
((-6, -19, -12, 5, 2, 2, -2, -33), 2, 34.05761622142182)
((-5, -17, 9, -10, -2, 1, 0, 0), 2, 34.077867910725615)
((23, -6, 5, 3, -2, 7, 3, 61), 2, 34.09812701238262)
((-12, 17, -34, -60, -6, -10, -5, -22), 2, 34.123803403866624)
((-2, 87, -36, 10, -1, -2, 0, -4), 2, 34.1444325530026)
((2, 22, 37, 25, 0, 2, 0, 3), 2, 34.1674558922221)
((29, 23, 2, 3, 0, 3, 8, -22), 2, 34.194753878513815)
((-4, -10, 28, 16, 2, 1, 1, -20), 2, 34.22294875954269)
((-4, -4, 85, 32, 0, 4, 2, -16), 2, 34.24337264351313)
((-8, -3, 1, -20, -2, 1, -1, -13), 2, 34.26397385377936)
((-2, -30, 45, -13, -8, -4, -3, -13), 2, 34.28486699672545)
((-9, -71, 8, 40, 13, 6, 0, -31), 2, 34.304739515654035)
((-8, -20, -40, -44, -11, -6, -2, -28), 2, 34.327987506193594)
((2, 17, 7, -10, -7, -4, -2, -1), 2, 34.34833669645102)
((-5, -29, 20, 0, 4, 2, 0, -2), 2, 34.371319552818434)
((6, 19, -24, 6, 1, -9, -4, 19), 2, 34.39199830770275)
((-12, 7, 3, -11, 0, 3, 2, -28), 2, 34.41218328582775)
((-12, 7, 3, -11, 0, 3, 2, -28), 2, 34.43161562501247)
((-10, 17, -2, 15, -1, -5, 0, -24), 2, 34.4588885233395)
((-13, 3, -27, -16, -4, -2, 0, -18), 2, 34.4788209112747)
((-3, -6, -26, -25, -4, 0, 0, -10), 2, 34.504239010758745)
((1, 6, 27, 11, 2, 2, 1, -2), 2, 34.53008531618533)
((-4, 0, -10, -7, -9, 1, 2, 27), 2, 34.549149318434125)
((2, -5, -20, -25, -4, 1, 1, 3), 2, 34.570555624294045)
((-6, 9, -9, 18, 3, -7, 1, 14), 2, 34.59385322058194)
((-5, 6, 5, 5, -8, -5, -2, 6), 2, 34.61483987321455)
((-1, -1, -3, -7, 0, 6, 1, -3), 2, 34.635038535683925)
((-6, -4, 3, 3, 0, -5, -3, 2), 2, 34.65471320180018)
((-5, -11, -30, 0, -5, -2, 1, -2), 2, 34.67445400891421)
((-3, 0, 15, -5, -1, -2, 1, -4), 2, 34.692898794580316)
((1, 0, -33, -16, 3, 1, -1, 1), 2, 34.71426404740713)
((-14, -1, 8, 9, -4, -9, 0, -2), 2, 34.73949683806118)
((10, 0, -1, 10, 4, -1, 0, 3), 2, 34.76036660358564)
((-17, -19, 6, 1, -4, 7, 0, -3), 2, 34.780723776377286)
((9, 11, 33, 9, 11, 6, 2, 3), 2, 34.80349110432089)
((-54, -11, 1, -23, -2, -1, -6, -11), 2, 34.82684742925336)
((-13, -9, -23, -8, -6, -7, -6, -7), 2, 34.84924984134713)
((24, 23, 24, 23, 1, 1, 3, 14), 2, 34.872736737732126)
((34, -5, -8, 2, -2, -4, -9, -15), 2, 34.89370001294311)
((11, -5, 61, 53, 12, 10, 22, 30), 2, 34.91427670542567)
((-5, 25, 15, -25, 3, 1, 36, -4), 3, 34.96480329610242)
((2, -2, -36, -15, 1, 0, -10, -23), 3, 35.85733671868808)
((-16, -17, 70, -38, -13, -2, 7, -21), 3, 35.8787019715149)
((-6, -115, -47, -34, -14, -5, 14, -7), 3, 36.61533422015487)
((13, -12, -65, -7, -6, -4, 1, 22), 3, 36.63619714350715)
((33, -14, 14, 24, 3, -1, -6, -12), 3, 36.65829564911973)
((26, 18, 13, -6, 3, -1, -1, 4), 3, 39.31769345814216)
((14, 19, 53, 26, 9, 2, -2, 63), 3, 39.342376024116376)
((82, 32, 61, 32, 7, 5, 6, 77), 3, 39.36551910134911)
((-3, -22, -25, -37, -18, -16, -15, -10), 3, 39.38764098438331)
((-33, 1, -13, -11, 4, 5, 8, -58), 3, 39.40750951204479)
((-8, 3, 26, 26, 2, 3, -1, 14), 3, 39.427814228183024)
((-3, 32, 19, -17, 1, -3, -6, 3), 3, 39.45306925589667)
((0, -14, -1, -23, -2, 2, 5, 5), 3, 39.47309743424245)
((2, 7, -24, -35, 2, 4, 0, 33), 3, 39.493815531616825)
((-7, -12, 4, -23, -13, -7, -2, 9), 3, 39.51219360610413)
((15, 6, -30, 1, 8, 4, 4, 13), 3, 39.532876922436564)
((-4, -8, 7, -15, -7, -8, -7, 3), 3, 39.55234803393033)
((3, 0, 7, 3, 4, -1, -9, -19), 3, 39.5729954288588)
((10, 10, -5, 32, 9, 7, 12, 14), 3, 39.59422383824192)
((2, 1, -2, 1, 4, 1, 1, 0), 3, 39.614303903060105)
((9, -1, 11, 6, -5, -1, 4, 37), 3, 39.63546160999733)
((10, -5, -33, -4, -4, -4, -5, 32), 3, 39.65853512514618)
((-13, -18, -74, -27, -13, -6, -6, -39), 3, 39.67931309152717)
((-14, -4, -30, -10, -4, -1, 1, 0), 3, 39.700465096654234)
((5, -1, 13, 0, -1, 0, 4, 5), 3, 39.720824550169944)
((-11, -11, 37, -6, -13, -10, -35, -37), 3, 39.74823372175965)
((-13, 8, 25, 10, 6, 3, 0, -3), 3, 39.76901282850267)
((-6, -10, -1, 1, -1, 2, 1, -23), 3, 39.78889675105156)
((8, 10, 58, 34, 2, -2, 4, -25), 3, 39.81261799183387)
((-3, -1, -5, 3, 2, -1, 0, -7), 3, 39.83305898123477)
((11, 17, 11, 33, 11, 3, 5, 41), 3, 39.855027485575846)
((7, -4, 25, 2, 0, 1, 0, 26), 3, 39.877559898941115)
((-7, -9, 7, -29, -7, -6, -3, -5), 3, 39.897341759088256)
((-3, 13, 25, 30, 7, 4, 7, -11), 3, 39.918137971261736)
((6, -5, -47, -24, -2, 1, 14, 8), 3, 39.93944392526296)
((4, -1, -11, 17, 1, 0, 5, -2), 3, 39.96230533307409)
((-5, -7, -17, -20, -3, -4, -2, -20), 3, 39.98115209635603)
((8, -1, -8, -15, -3, 1, -7, -5), 3, 40.00192093984077)
((5, 4, 28, 44, 10, 8, 1, -14), 3, 40.02168626473846)
((0, -5, 24, -22, -7, -3, -4, -3), 3, 40.04241861663822)
((10, 4, 53, 28, 3, -1, 14, 47), 3, 40.066842890612484)
((1, -2, 13, 13, 4, 4, 7, 25), 3, 40.08574154036682)
((5, 4, -26, 58, 10, 4, 6, -2), 3, 40.10511743163102)
((-2, -4, -59, 1, 1, 2, 8, 19), 3, 40.129402011256516)
((-4, -6, 14, -37, -10, -4, -17, -23), 3, 40.150079625778794)
((-5, -10, -3, -15, -7, -4, -2, -23), 3, 40.177434630172044)
((5, -14, -25, -71, -13, -10, 0, -1), 3, 40.2016473669896)
((-3, 0, -19, -22, 1, 1, 1, 6), 3, 40.22203532955607)
((12, 6, 26, 34, 3, 2, 10, 10), 3, 40.244507873914735)
((-3, 11, 13, 0, -1, 0, 1, 19), 3, 40.271396470237406)
((1, -2, -23, -7, -2, -2, 0, 0), 3, 40.29067086928087)
((-8, -6, -33, -31, -5, -1, -3, -17), 3, 40.311379843759)
((-8, -15, -30, -26, -9, -8, -10, 4), 3, 40.331506663420434)
((9, 11, 29, 26, 8, 7, 7, 42), 3, 40.35271625683006)
((0, 1, -19, -22, 0, -1, -3, -5), 3, 40.375891264199645)
((0, 5, 30, 49, 3, 0, -2, 1), 3, 40.39506474120339)
((-5, -6, -51, -30, -8, -5, -4, 3), 3, 40.415177306339444)
((2, -2, 43, 19, 6, 3, 0, 25), 3, 40.4333529665663)
((-3, 2, 15, 3, 1, 3, 8, 5), 3, 40.455454893264964)
((3, 10, 41, 29, 6, 2, -1, -7), 3, 40.47726887855087)
((0, 7, 2, 11, 3, 2, -2, -9), 3, 40.49711231824767)
((-7, 0, -25, 31, 2, -2, -28, -28), 3, 40.51705268871709)
((-16, -5, 28, -47, -5, -2, 0, 10), 3, 40.53853539883307)
((4, 3, -24, -15, -1, -2, -14, -23), 3, 40.56946999964079)
((16, 5, 30, -47, -1, -2, 2, 25), 3, 40.59450436730149)
((-10, -10, -11, -29, -4, -1, 0, 3), 3, 40.61563869681708)
((1, -3, -22, 2, 3, 1, -7, -1), 3, 40.63323961458044)
((-5, -18, -10, -35, -12, -5, -14, -32), 3, 40.65718607686382)
((8, 7, 22, 21, 4, 1, -6, -3), 3, 40.68092727398167)
((-1, 6, 21, 9, -2, -1, 7, 17), 3, 40.69992057378456)
((2, 1, 3, 13, 2, -1, 9, 3), 3, 40.71985923371093)
((-2, 4, -7, 16, 3, 1, 0, -20), 3, 40.739782498749875)
((-1, -3, -16, -2, -2, -3, 0, 4), 3, 40.76328821110838)
((-7, -16, -71, -64, -14, -9, -1, -10), 3, 40.783955562372384)
((4, 8, 20, 17, 2, 2, -4, 6), 3, 40.804162207375974)
((0, -3, 0, -9, -1, 1, -3, 6), 3, 40.825043376520746)
((-5, 4, 40, -4, 1, 3, 2, -3), 3, 40.844677559784905)
((2, 7, 23, 27, 10, 2, -1, 11), 3, 40.86766041615232)
((2, -1, -7, 21, 9, 7, -1, 0), 3, 40.89303518187919)
((-1, 2, 0, 7, 2, 0, -1, -3), 3, 40.912523398803415)
((0, 2, -7, -1, -2, -1, 2, 2), 3, 40.93297237073854)
((1, 24, 4, 0, -5, -3, -3, -5), 3, 40.95397099717247)
((-4, -15, -18, -8, -8, -1, 0, -1), 3, 40.98034529021928)
((1, -2, -11, 18, 8, 1, 0, 0), 3, 41.002350286145344)
((1, -2, 9, 3, 1, -1, 2, 0), 3, 41.024440809223705)
((-2, -2, 0, 3, -10, -6, -4, -2), 3, 41.045926370244764)
((0, 2, 11, 22, 8, -2, 0, 0), 3, 41.06743530868745)
((0, 3, -8, -8, -5, -5, -3, -2), 3, 41.08751708404867)
((-5, -9, -10, 2, 10, -1, 1, -4), 3, 41.109200497882064)
((-3, 0, -3, 6, 0, -5, -3, -1), 3, 41.13381008068632)
((-1, 0, -7, 2, -2, -1, 0, 1), 3, 41.1542242715795)
((2, 0, -1, 2, 5, 3, -2, 1), 3, 41.18729705119484)
((2, 2, 0, -4, -8, 1, 2, 1), 3, 41.208538574741326)
((-1, -3, -4, -15, -6, -1, -2, -1), 3, 41.22958566656156)
((73, 17, 1, -15, -7, 4, 31, 30), 3, 43.29605850969507)
((-12, -63, -1, 48, -38, -19, -44, -25), 1, 43.31549655068995)
((-12, 26, 35, -4, -3, 32, 29, 28), 1, 43.3405514448672)
((51, -48, -65, -53, -5, -24, -19, 17), 1, 43.35994102047577)
((3, 64, -23, -6, 22, -16, 29, 6), 1, 43.37868629153697)
((-24, 40, 24, 13, 26, -6, 14, -16), 1, 43.39989873585167)
((-24, 40, 24, 13, 26, -6, 14, -16), 1, 43.42369695107106)
((1, 6, 42, -9, -11, -29, -39, -15), 1, 43.44749801719552)
((10, 93, -32, -25, -1, 1, 9, 9), 1, 43.47236076037059)
((8, -71, -7, -7, 0, 2, -7, -2), 1, 43.49283310972734)
((83, 86, -5, 36, -1, -9, -19, 2), 1, 43.51294282395832)
((-13, -21, 7, -20, -12, -12, -10, -12), 1, 43.537774207177556)
((12, -10, 19, -16, -10, -4, 2, -7), 1, 43.55839594396033)
((18, 3, 10, 4, -11, -4, 13, 0), 1, 43.579799969096186)
((20, 44, 8, 1, -8, 0, 3, 2), 1, 43.59986920047508)
((18, 4, -2, 6, 0, -8, -10, -2), 1, 43.62171625625987)
((-16, 33, -21, 6, 1, 10, -1, 7), 1, 43.64521569662721)
((-31, 38, 1, 9, 10, 2, 8, 1), 1, 43.664331015167384)
((-35, -35, 3, 12, 15, -1, -3, -3), 1, 43.68573047885512)
((-12, -1, -1, -18, -4, -5, -14, -8), 1, 43.70846872756694)
((32, 48, -30, 15, 0, 1, 15, 3), 1, 43.73690992679446)
((8, -35, 1, -5, -6, -20, 5, -4), 1, 43.7626581610864)
((19, -8, 2, -33, -8, 4, -2, 1), 1, 43.78120215824918)
((-19, 32, -11, 0, -6, -3, 2, -2), 1, 43.803453472373874)
((-2, -12, -4, 20, -3, 2, -5, -3), 1, 43.82524179951409)
((18, -4, -3, -5, -4, 16, 6, 3), 1, 43.85049967813282)
((-47, -8, 6, 19, 6, -1, -7, 0), 1, 43.87931776701149)
((16, -1, 1, -41, -6, -3, -4, -2), 1, 43.89973252808569)
((5, 5, -9, 0, -8, -2, 7, 1), 1, 43.921790550846175)
((45, 23, 11, -8, 5, 9, 7, -5), 1, 43.94705299091302)
((4, 6, 2, -23, -10, -6, -3, -2), 1, 43.96411736834093)
((-17, -22, 2, 2, -3, -2, -4, 6), 1, 43.98577113276152)
((-26, 26, -8, 7, -6, -7, -4, 3), 1, 44.00529070964159)
((0, -23, 4, 15, 3, 1, -12, -14), 1, 44.02813957347039)
((5, 6, -7, -16, -1, 0, 9, 6), 1, 44.04867692346289)
((-32, -9, -4, -21, 12, 5, -6, -15), 1, 44.06885277869165)
((14, 105, -18, 4, -7, -1, 16, 6), 1, 44.090551587412456)
((5, -24, 10, 12, 15, 2, 4, -2), 1, 44.11131586944907)
((-2, -10, 1, 4, -8, -6, 3, 1), 1, 44.13256423516774)
((12, -2, 5, 14, -3, -3, -12, -2), 1, 44.15726960838257)
((8, -23, 9, -20, -9, -10, -39, -2), 1, 44.18187006829058)
((-7, -74, 8, -3, 6, 3, 6, -3), 1, 44.2048569159251)
((-4, 4, -7, 15, -2, -10, 4, 2), 1, 44.22492500694195)
((-8, 11, -5, 8, 1, -1, 1, 6), 1, 44.24558437567175)
((-24, -12, -4, -4, -3, 0, 1, 2), 1, 44.27081032415361)
((30, -4, 29, 0, -5, -6, -2, -5), 1, 44.29235119273316)
((-7, 68, -13, 8, 10, 7, 7, 7), 1, 44.31257437298619)
((43, 6, -5, 4, -1, -2, -2, 6), 1, 44.334517789362586)
((-4, -18, -2, -10, -14, -11, -14, -6), 1, 44.36029510288631)
((-10, -8, -6, 6, 13, 2, 5, -3), 1, 44.380038190724406)
((-34, -3, 23, -19, -5, -1, -10, -10), 1, 44.399141535463265)
((-16, -26, -7, 11, -20, -8, -26, -8), 1, 44.421384867053746)
((-1, -2, -3, -13, -6, 19, 24, 1), 1, 44.44220331628682)
((11, -6, -4, 0, -3, -10, 0, -1), 1, 44.462761192795874)
((-2, 0, -1, 4, -9, -1, 13, 0), 1, 44.48394626842184)
((-4, -3, 12, -2, 0, -11, -2, 1), 1, 44.50527902093077)
((-3, -3, 4, -1, -9, -2, 3, -4), 1, 44.52453859526784)
((1, -4, 24, -6, 14, 17, 0, 0), 1, 44.54423834934877)
((1, 3, -1, 12, 5, -9, 7, 3), 1, 44.570419921212384)
((-2, -1, -9, 0, 6, -4, -14, -3), 1, 44.59155425072798)
((2, -2, 0, -1, -4, -8, -8, 15), 1, 44.60942999574075)
((-1, 24, 22, 8, -3, -1, 2, 18), 1, 44.631326087092866)
((-3, -1, 0, 7, -2, 3, 5, -9), 1, 44.656772125446665)
((-2, -8, -39, -30, -5, 2, 2, -3), 1, 44.680098230785326)
((-2, -3, -30, 4, -1, 2, 4, -10), 1, 44.70385197188551)
((-4, -13, -29, -3, -8, -3, -1, -11), 1, 44.72529362896839)
((-18, -7, -13, -6, -3, 3, 1, -6), 1, 44.746369229839395)
((-3, -3, -10, -6, -3, -4, 1, 2), 1, 44.77092407526617)
((0, 2, 18, 5, 16, 5, 3, 0), 1, 44.791643883183596)
((-2, 1, 18, -1, -6, -4, 11, -4), 1, 44.810304767454525)
((0, -1, 13, -4, -3, -3, -6, -1), 1, 44.829813510895306)
((7, -1, -38, 11, 3, 0, -1, -22), 1, 44.84898755808006)
((1, -7, 17, 4, 1, 1, -3, 13), 1, 44.87383091510062)
((5, -103, -39, 4, -5, -9, -12, -61), 1, 44.89273013503597)
((-3, -18, -5, 13, -2, 8, 12, -10), 1, 44.91265168953188)
((18, 62, 17, 56, 20, 19, 26, 70), 1, 44.93157029562175)
((22, 106, -96, -58, 1, 21, -92, -2), 1, 44.954251526232035)
((-29, -21, 41, 39, 3, 11, 60, 2), 1, 44.975120151394464)
((-4, -29, -107, -82, -25, -18, -5, 81), 1, 45.00358301750057)
((-9, -1, 6, 7, 6, 4, -5, -63), 2, 45.07197566011281)
((-40, -34, 9, -22, -9, -3, -5, -37), 2, 45.09355187991532)
((-5, 33, -20, 10, -2, 14, 4, -14), 2, 45.11593319531151)
((54, 88, 48, 13, -3, -5, -9, -42), 2, 45.138039113277294)
((31, -24, 9, 22, 7, 3, -7, -5), 2, 45.16449380184727)
((66, -22, -38, 6, 1, 2, 3, -17), 2, 45.19274513079667)
((77, 7, 40, 18, -1, 1, -2, 57), 2, 45.21213185550017)
((-24, -19, 7, -8, 4, 14, 6, -12), 2, 45.23337794049477)
((-53, -86, -50, -12, -3, -15, -2, 89), 2, 45.25574785227066)
((3, -23, 37, 41, 4, -8, -7, -44), 2, 45.281669421591275)
((-11, 6, 17, 3, 2, 7, 5, -13), 2, 45.30240861566322)
((-67, -47, -27, -10, 0, 5, -8, 18), 2, 45.32280855203101)
((-12, 3, -28, 15, 2, 6, 1, -26), 2, 45.34406090901678)
((-1, -24, 39, 22, 3, -2, -2, -10), 2, 45.36765328888962)
((-7, -10, 8, 10, -4, -7, 0, -20), 2, 45.389085252895235)
((-14, 1, -49, -30, -4, -1, -1, 22), 2, 45.409542207364574)
((18, 17, 5, 19, 7, 10, 6, -4), 2, 45.42941187538808)
((-5, -3, -5, 5, -3, -5, -3, 38), 2, 45.45376145564933)
((9, -17, -23, -21, 1, 6, 6, -13), 2, 45.477925727080574)
((18, -16, 4, 11, 3, -3, 2, 63), 2, 45.50400751726651)
((-19, 40, 25, 30, 4, 12, 7, -40), 2, 45.522881649237185)
((-5, -103, -29, 14, 0, -4, -7, 7), 2, 45.544889496068315)
((13, -43, -55, 7, -5, 0, 2, 30), 2, 45.56516741369883)
((-6, 35, -12, 11, 3, 0, 6, -7), 2, 45.59429283014479)
((24, 22, 10, 11, 4, 5, 4, 13), 2, 45.61313161089251)
((-9, 42, -34, -11, 0, 1, 2, 66), 2, 45.635476434703726)
((-14, 11, 15, -13, 3, 0, -4, -10), 2, 45.656005802162014)
((50, 12, 6, -8, 3, 1, 2, -2), 2, 45.67649696749227)
((15, -12, -63, -20, -3, -2, -6, 31), 2, 45.700948610155265)
((-36, -24, 20, 0, 1, 1, 1, -73), 2, 45.72154468879235)
((-19, 50, -46, -30, -10, -6, -1, -7), 2, 45.740867553222124)
((23, 36, -49, -34, -7, -3, -2, 30), 2, 45.762967769377745)
((8, 3, 4, -7, -3, -4, 0, 53), 2, 45.78618839122856)
((-28, -11, -51, -2, -4, 1, 1, -12), 2, 45.80750688921212)
((-17, -33, 4, -7, -6, -4, -4, -24), 2, 45.82794958915607)
((-13, 11, 29, 10, 0, -3, -2, 15), 2, 45.851841884242994)
((-8, -2, -7, -2, 3, -5, -3, -19), 2, 45.87180734267708)
((-55, 36, 28, 14, 3, 0, -4, -15), 2, 45.90343072215136)
((0, -12, 7, 5, 2, 7, -1, 5), 2, 45.926313796841086)
((20, -11, -1, -11, -3, 8, 4, 0), 2, 45.94833247711151)
((-2, 6, 32, 2, -1, 2, -2, -5), 2, 45.97300877109456)
((-13, 27, 27, -6, -2, 3, -1, 1), 2, 45.994804510587976)
((0, 7, -20, 2, -2, 3, 1, -4), 2, 46.01841969770143)
((1, -26, -33, 16, 0, -11, -4, -7), 2, 46.03885042384406)
((3, 12, 46, 16, 3, 6, 1, 2), 2, 46.05880618920089)
((2, 11, 2, 4, 2, -4, -3, -2), 2, 46.07929165272099)
((0, -5, -20, 6, 0, 1, 1, 1), 2, 46.10708968776317)
((-2, -28, -19, 8, 5, 0, 0, 6), 2, 46.1271492260648)
((1, 14, 6, -6, -9, 0, 1, -1), 2, 46.145963489028865)
((0, 2, 27, -4, -6, -1, 0, -1), 2, 46.17190729540907)
((4, -5, -6, -4, 1, -3, -3, 2), 2, 46.20238233031841)
((20, 9, 1, 16, -2, -14, -2, 3), 2, 46.22405262998844)
((0, 7, 5, 11, 6, 4, 3, 3), 2, 46.245327224033815)
((-3, -6, -15, 1, 5, -5, -1, 1), 2, 46.269249168533534)
((28, 4, 49, 29, -2, 2, 1, 3), 2, 46.29087499408437)
((-1, 1, -2, -10, -2, -4, -3, -5), 2, 46.31784284556818)
((29, 9, 10, 9, 4, 3, 6, -5), 2, 46.34066947233738)
((44, 39, -42, -32, -8, 7, 42, 85), 2, 46.36043365687305)
((-5, -10, 27, 5, 0, 0, -6, -25), 2, 46.3838298944766)
((-72, 73, 34, 45, -15, -15, -31, -53), 2, 46.40984269275967)
((-9, 7, 25, 54, -2, -6, -11, -59), 3, 46.534439788599684)
((0, 14, 72, 81, -4, -12, 12, -9), 3, 46.55553192472014)
((3, 43, 49, -37, -2, 0, 17, 70), 3, 46.578116794738825)
((18, -10, 27, -3, 2, 10, 16, 58), 3, 46.59970726906671)
((9, -22, -56, -104, -18, -1, 22, 23), 3, 46.62479637410489)
((29, -12, 0, 30, 3, -3, 26, 1), 3, 46.644949422093035)
((29, -12, 0, 30, 3, -3, 26, 1), 3, 46.6650511537898)
((-88, -41, -107, -53, -37, -13, 1, -59), 3, 46.687350363119776)
((3, 23, -89, 9, 10, -2, -17, -3), 3, 46.71219885176947)
((-14, -13, -40, -10, -1, 0, 4, -10), 3, 46.73825726453377)
((1, -33, -27, -33, -6, -7, -16, 51), 3, 46.75957690287936)
((-6, 1, 48, 46, 9, 11, -12, -111), 3, 46.78190747216519)
((11, 13, 40, -24, -7, 1, -9, 13), 3, 46.80310452159247)
((-20, 20, 45, 5, 5, 3, -6, -30), 3, 46.82683602563306)
((8, -17, 13, 56, -6, -8, -20, -53), 3, 46.85106016607092)
((5, 9, 80, 61, 4, 1, -25, -7), 3, 46.86975925246988)
((14, -21, 37, 19, 3, 0, 4, 24), 3, 46.89185604753941)
((-4, -62, 18, -81, -28, -12, -2, 32), 3, 46.911822076154515)
((7, 0, -26, 39, 14, -2, -1, -8), 3, 46.93497427628349)
((-13, -8, -17, -29, -6, 0, 23, 32), 3, 46.95514385952108)
((-13, -20, 17, -9, -8, -5, -8, -83), 3, 46.97638823397264)
((8, -42, -97, -113, -28, -11, -13, -88), 3, 46.99938021323629)
((0, -41, -95, -77, -19, -11, -1, 41), 3, 47.02127858531248)
((-71, -28, 43, 40, 7, 0, -25, -38), 3, 47.04198185798045)
((-34, -13, -18, 12, 0, -8, -3, 22), 3, 47.061877754330666)
((14, 15, 43, 74, 18, 12, 16, 4), 3, 47.084931883325)
((10, -21, 30, -30, 0, -1, 12, -22), 3, 47.10705205581616)
((6, 36, -18, -32, 1, 3, 15, 23), 3, 47.13351301637731)
((51, 14, 48, 38, 12, 7, -7, -25), 3, 47.157139036930054)
((15, 19, 75, 25, 8, 4, -25, -13), 3, 47.18441022471404)
((23, 7, 32, -6, 6, 6, 3, -50), 3, 47.206718556940274)
((-3, 13, -69, -24, -14, -13, -1, 29), 3, 47.23107155828761)
((-10, 19, -43, -19, -1, 1, 13, 2), 3, 47.25308282620484)
((11, -30, -13, -16, -4, -7, -1, 52), 3, 47.27351355234747)
((24, -26, 50, 39, 14, 6, 6, -10), 3, 47.290918898022554)
((21, -16, 25, 44, 2, -2, 1, -5), 3, 47.311698004765574)
((27, 11, 47, 7, 11, 6, 9, 12), 3, 47.33316646035617)
((-37, -20, 13, 37, 12, 12, 33, 23), 3, 47.3541947362029)
((-18, -7, 31, 0, -9, -4, -8, -8), 3, 47.37414251902552)
((-1, -26, -13, -2, 8, 6, 0, 4), 3, 47.39253028659008)
((-53, -18, 13, -62, -4, -3, -5, -42), 3, 47.4150273487324)
((-22, 10, 37, 17, 10, 11, 2, -46), 3, 47.43644163712654)
((41, 39, -16, 44, 4, -2, -10, -9), 3, 47.45627709428912)
((27, -42, 43, 11, -5, -7, -27, -18), 3, 47.47756195159277)
((17, -22, -44, -41, -5, 9, -8, -52), 3, 47.501276920383916)
((28, 23, 44, 18, 7, 7, 13, -7), 3, 47.52365310415097)
((-4, -5, -21, -39, -9, -3, 5, 78), 3, 47.54606064787388)
((11, 31, -19, -10, 0, 8, 8, 31), 3, 47.57039483324771)
((4, -7, 12, -13, 2, 6, 1, -1), 3, 47.59260110307219)
((-1, -2, 19, 33, 1, 2, 4, 25), 3, 47.618472496463454)
((-5, 9, -10, 7, 5, 3, 14, -37), 3, 47.64073008257932)
((15, -1, -30, -49, -6, -7, -10, 29), 3, 47.66106615867339)
((-25, -9, 47, -7, -6, -10, -4, -31), 3, 47.68371260824174)
((74, 28, 14, 15, 7, -1, 1, 30), 3, 47.70605001969975)
((-54, 8, 62, 36, -1, 2, 0, 34), 3, 47.72634105149362)
((-24, -6, -21, -2, -16, -11, 0, -7), 3, 47.74911066016128)
((18, -1, 5, 2, 3, 2, 2, -24), 3, 47.76801501172577)
((-24, 3, 3, -14, -1, -1, -3, 6), 3, 47.790280010194834)
((8, -1, 0, 14, 3, 1, 3, -5), 3, 47.8117769748362)
((1, 4, -8, 16, -1, -4, -1, -9), 3, 47.83390855094767)
((-9, -21, 13, -6, -2, -3, -3, -2), 3, 47.85502007322265)
((2, 4, 3, 27, -4, -2, 1, -3), 3, 47.87403732062818)
((6, -4, -44, -24, 2, 0, -1, -4), 3, 47.96056799152027)
((10, -67, -10, -5, -1, -3, -2, -5), 3, 47.9855367883642)
((21, 4, -23, -4, 0, 0, 2, 7), 3, 48.00590935604326)
((-4, 61, 16, -6, 2, 1, 2, 2), 3, 48.02483366394329)
((-4, 79, 38, 0, 1, 1, 0, 3), 3, 48.05383820201399)
((2, 37, 1, -4, -2, -3, -2, -3), 3, 48.07377572157833)
((-18, -22, -96, -60, -23, -8, -1, -6), 3, 48.09394872590201)
((13, -19, 21, 33, 10, 9, 1, 14), 3, 48.117274261059656)
((-41, 23, -37, -25, 23, 22, 23, -4), 3, 48.18759639622791)
((-62, -31, 32, 11, -3, 2, 8, 32), 3, 48.21556548557471)
((28, -14, -17, -17, -6, 0, -1, -5), 1, 48.405882215426935)
((1, 29, -12, -8, -7, -3, -6, 1), 1, 48.437595113320626)
((-7, 2, 11, 15, -1, -1, 3, -11), 1, 48.96656059399177)
((-12, -23, 7, 8, 8, 1, 2, 6), 1, 48.99265264743598)
((26, 13, -5, -19, -2, -1, -7, -16), 1, 49.02113318915356)
((10, -68, 2, -7, 0, -3, -2, 5), 1, 49.05002141029713)
((-53, 41, -5, 3, 1, -2, 1, -8), 1, 49.07711869287142)
((5, 3, 16, 2, -3, -11, 0, -6), 1, 49.56490513043176)
((-4, 0, -4, 4, 2, -2, 0, -18), 1, 49.6015991296757)
((4, 1, 16, 5, -1, -3, -4, 14), 1, 49.626760647702824)
((-1, 1, 14, 11, -1, -1, 2, 13), 1, 49.64176724184627)
((7, -5, -24, -13, -13, -8, -10, 39), 1, 49.680411260162764)
((6, -8, 62, 85, 16, 14, 102, -17), 1, 49.71221880810501)
((20, 61, 101, 118, 25, 14, 7, -37), 1, 49.74609782367608)
((3, -34, 42, 47, -27, -39, 41, -58), 1, 49.777304971009144)
((-4, 11, 34, -10, 16, 29, 37, 34), 1, 49.80532138538022)
((32, 20, -31, -116, 8, 8, 37, 127), 1, 49.82816397721785)
((-22, -21, -24, -5, -5, -3, 14, 12), 3, 49.887579119743144)
((-17, 3, -30, -98, -16, -7, 8, -20), 3, 49.915792246564514)
((-8, 17, -58, -49, -6, 12, 23, 14), 3, 49.940306609139206)
((2, 12, 28, 43, 6, -10, -2, 1), 3, 49.96529878340477)
((-7, -18, -15, 9, 1, -8, -11, -67), 3, 50.00002565814569)
((14, 31, -17, 12, -9, -7, -4, 11), 3, 50.03031766494909)
((-4, -10, -36, -22, -4, -12, -27, 18), 3, 50.05319845891475)
((10, 7, 35, 14, 4, -6, 4, 46), 3, 50.08193501190823)
((23, 9, 2, 7, -3, -3, 1, 17), 3, 50.11486296554567)
((10, 11, -5, -17, 11, 5, 8, 5), 3, 50.13865205786881)
((-4, -20, 22, 6, -6, -10, -10, -16), 3, 50.18181190982701)
((14, -1, 3, -3, 1, 3, 21, 91), 3, 50.21480942554833)
((9, 2, 6, 28, 0, 4, 5, 1), 3, 50.24176416286878)
((29, -7, -11, 9, -6, -2, 6, 77), 3, 50.265779617055024)
((-7, -13, 15, -17, -9, -5, 3, -16), 3, 50.29820010958879)
((-8, -2, -9, 18, 5, 0, 4, -41), 3, 50.32735631580958)
((-4, 4, 6, -4, 0, -1, 2, -12), 3, 50.35250015822523)
((-64, -14, -21, -38, -8, 4, 8, -36), 3, 50.38454889273698)
((13, 2, 24, 16, 1, 1, -1, 5), 3, 50.41763478651568)
((4, 8, 15, 18, 0, -5, -1, 14), 3, 50.44141361558054)
((1, 0, 2, -11, -2, -9, 1, 0), 3, 50.46931314284346)
((1, -4, -29, -8, -2, -9, -2, 14), 3, 50.50268070604375)
((-2, 0, -3, 2, 2, 2, -3, -5), 3, 50.53055058389387)
((-3, -3, 2, 9, -9, -4, -2, 0), 3, 50.58160402182881)
((-4, -6, -3, 0, -7, -4, 0, -2), 3, 50.62008895964202)
((2, -1, 22, -6, 4, -8, -2, 1), 3, 50.6478647576246)
((-1, -1, -15, -8, -1, 0, -2, 0), 3, 50.6712997675372)
((-1, -2, -7, 8, -1, 1, -2, -2), 3, 50.700967996309785)
((3, -2, 2, 30, 2, 3, 3, 5), 3, 50.736360842476664)
((5, 1, 0, 0, 2, -5, -17, -12), 3, 50.769173619549)
((4, 0, -1, -17, -8, -13, -5, 1), 1, 50.962312175246275)
((1, -1, -3, -3, -2, -8, -4, -3), 1, 50.9841267307132)
((-3, -5, -6, -3, -8, 2, 10, -1), 1, 51.0121368730931)
((6, 2, 1, 5, 4, 4, 21, 0), 1, 51.03787826521286)
((-2, -1, 1, 18, -4, 8, -6, 4), 1, 51.06317206523555)
((1, 3, 0, -5, 4, 2, -7, 2), 1, 51.08688133221654)
((-3, -3, 1, -11, 1, -6, -4, -1), 1, 51.112829129863854)
((3, -9, -3, -8, 4, 3, 5, 1), 1, 51.142456875784355)
((-1, -5, -7, -9, 0, 4, 4, 1), 1, 51.18590694987938)
((-4, -4, -17, -16, -6, -8, -45, -3), 1, 53.16781681680483)
((8, 3, 0, 5, -6, 3, 1, -16), 1, 53.199672259952365)
((18, 19, -1, -17, -14, -8, -10, -8), 1, 53.225936508063214)
((2, -38, 17, -2, 0, -10, 3, 9), 1, 53.2488144511238)
((-1, -18, 6, 7, -8, -4, 12, -1), 1, 53.279100756117046)
((-15, -5, 19, -16, -4, -5, 1, -3), 1, 53.300532149941645)
((-10, -10, 53, 16, -24, -21, -14, -12), 1, 53.32198007901569)
((-22, -33, 11, -13, 2, 7, 7, -19), 1, 53.34424792838983)
((-6, -27, 8, -1, 2, -2, -2, -4), 1, 53.36562971646609)
((-7, 19, -1, 12, 1, -5, -6, 2), 1, 53.390595092223926)
((7, 12, -2, -8, 0, -2, -1, -3), 1, 53.4122408741103)
((2, -65, 10, 0, -2, -4, -8, 2), 1, 53.43265848608958)
((7, 22, -1, -6, -6, -3, -4, -3), 1, 53.45263477796296)
((4, 22, -21, 0, -1, 1, -3, 4), 1, 53.47635829946933)
((-38, -13, -5, -10, -1, 3, 1, 12), 1, 53.497541664552244)
((-11, 36, 10, 16, -6, 3, 0, -14), 1, 53.51589351071284)
((13, 13, -1, 5, 0, 3, 9, 4), 1, 53.534477990727716)
((-8, -29, 3, -4, 2, 7, -2, -16), 1, 53.55371703854823)
((26, 1, 2, -12, 3, 4, -1, -11), 1, 53.57323262416119)
((2, -11, -9, 0, 2, -6, -2, -4), 1, 53.596875179963384)
((-2, -17, 0, 2, 8, -5, -12, -16), 1, 53.61731217809718)
((5, 17, -5, -10, -6, -12, -3, 6), 1, 53.63781816813384)
((-52, 1, -5, 5, 6, -10, -2, 1), 1, 53.65901920882823)
((6, 12, 2, 8, -2, -4, 2, 5), 1, 53.68115876747391)
((-5, 4, -3, -7, 3, 8, 6, 12), 1, 53.71255521490408)
((-11, -25, 3, 12, 4, 4, -10, 0), 1, 53.734332708605)
((19, -11, -6, -3, 6, 0, 5, 13), 1, 53.75550467006761)
((8, 15, 0, 2, 9, 6, -1, -3), 1, 53.77954920348563)
((-5, -32, 8, 2, 0, 0, 0, -13), 1, 53.798513424056736)
((-4, -86, -11, -15, -8, -3, -5, 4), 1, 53.81761904951965)
((-7, -12, 0, 1, -7, -10, 1, -1), 1, 53.84146116867722)
((10, 15, 8, -4, 5, 6, -1, 2), 1, 53.86315370540686)
((-42, 12, 3, -12, -3, -4, -9, -5), 1, 53.88826504750463)
((-8, 26, -1, 5, -1, -2, 6, 3), 1, 53.92396465105777)
((22, -3, 2, 5, 1, 3, 1, -8), 1, 53.974202159959724)
((35, 12, 4, -22, -3, 3, 1, 4), 1, 54.00809314933212)
((17, -11, -3, -1, -5, -1, 2, 2), 1, 54.04260563601127)
((-19, -1, -3, -6, -3, -7, -8, -7), 1, 54.065650642109354)
((3, -15, 5, 3, 2, 7, -4, 1), 1, 54.097013448859606)
((-18, -10, 4, 6, 10, 2, 1, -4), 1, 54.12994653412619)
((3, -3, -2, 19, 4, -2, 0, 6), 1, 54.17587746581907)
((17, 12, 0, -4, -10, -4, -1, 2), 1, 54.210354031094255)
((-7, 15, -9, -16, 2, 2, 6, 10), 1, 54.25998372703382)
((10, 9, 16, -9, 0, 2, -2, 2), 1, 54.294974025403846)
((-4, -14, 1, 1, 3, 8, -3, -5), 1, 54.31992799754138)
((15, 4, 3, -14, -2, 4, 8, 7), 1, 54.366022571185674)
((19, 2, -4, 0, -3, -2, 0, 1), 1, 54.391757121133246)
((8, -1, -6, -9, 0, 2, -1, 1), 1, 54.41234749796018)
((-21, -5, 2, -20, -4, -3, 3, -14), 1, 54.43218922711393)
((17, -14, 1, -2, -3, 7, -5, 1), 1, 54.4552484877374)
((30, 13, 0, 7, 0, -4, 1, 0), 1, 54.47636115037441)
((2, -13, 3, 1, -2, -1, -1, -8), 1, 54.50714750411813)
((8, 6, 6, 9, 8, 6, -1, 8), 1, 54.52800016421213)
((5, -6, 0, -15, -6, -5, -1, -6), 1, 54.54839097768369)
((22, 6, 0, -1, -1, 0, 1, -4), 1, 54.57317047443052)
((-5, -2, 18, -8, -2, 2, 0, -7), 1, 54.59871800500505)
((23, -1, 2, 23, 6, 4, -3, 2), 1, 54.62096190677654)
((-18, -1, -6, -15, 0, -3, -2, -5), 1, 54.64240128313536)
((-25, -3, 1, -5, -4, -9, 1, -1), 1, 54.66294604548106)
((-1, 2, 9, -4, -4, -3, 0, 0), 1, 54.68518196471834)
((-7, -3, 25, -2, -1, 6, 2, 1), 1, 54.71045808912955)
((2, -2, 6, 4, 4, 6, 2, -3), 1, 54.729664636632194)
((-9, -3, 12, 4, 0, 0, -9, -9), 1, 54.751519674951204)
((-41, -34, -108, -101, -20, -13, 3, -30), 1, 54.77112420880257)
((1, 2, 26, 8, 0, 3, 8, 17), 1, 54.793406312702096)
((-42, -15, -88, -44, -10, -14, -17, -32), 1, 54.8195724896783)
((-65, -20, 7, -20, 1, -14, -23, -63), 1, 54.83860855305734)
((-53, 6, -47, 25, 7, 8, -10, -64), 1, 54.85917441210061)
((-15, 42, 37, 20, 13, 6, -18, -119), 1, 54.88004132672)
((2, -34, 22, 10, -3, -8, -8, 62), 1, 54.91098391006193)
((39, 47, 25, -7, -6, -9, -8, 100), 2, 55.00622124505867)
((68, 22, -43, -10, -4, 3, 1, 21), 2, 55.02941392803974)
((14, -66, -26, -11, -2, -4, -5, 10), 2, 55.04846880739228)
((-16, -20, -51, -15, 1, -2, 0, 2), 2, 55.069958929861464)
((-3, 28, 30, 22, 3, 4, -1, -33), 2, 55.090820142670694)
((-3, -6, 3, -16, -1, -2, -7, -25), 2, 55.11399914130739)
((-12, -10, -29, -9, -2, -2, 2, -47), 2, 55.13522070851833)
((-17, 4, -3, -5, 2, 3, 5, 1), 2, 55.15740702200728)
((-66, -12, -17, -8, -2, -3, -2, 22), 2, 55.185270057685216)
((52, -3, -12, 0, 2, 1, 3, -31), 2, 55.20760347787612)
((-51, 90, 9, 0, -1, -8, -6, -27), 2, 55.23112458512204)
((5, -4, 5, 6, 1, -1, -1, 36), 2, 55.25376875396632)
((12, -35, -18, -6, 2, -5, -1, 21), 2, 55.27526514842667)
((26, 6, 69, 1, -9, -3, -1, 28), 2, 55.29695768515631)
((14, -5, -14, -9, -8, -12, -15, 61), 2, 55.32508186373928)
((24, 11, -33, -12, -2, 1, 0, 5), 2, 55.34540596603204)
((26, 16, 39, -7, 1, -4, -2, 9), 2, 55.36819096958711)
((-33, 40, 5, 10, 8, 2, -3, -101), 2, 55.38975008395916)
((-16, 32, -12, -34, -4, -5, -7, -32), 2, 55.41263886045903)
((20, -7, -33, 7, 0, 1, 1, 4), 2, 55.4345218376478)
((-10, -16, 6, -9, -3, -1, 1, 2), 2, 55.456910565397195)
((16, 2, 5, 5, 0, 3, 0, 0), 2, 55.47726545746478)
((-8, -2, -34, -13, 1, 3, 5, 14), 2, 55.49748407626969)
((-7, -2, -13, 13, -1, -3, -4, -34), 2, 55.522817788963465)
((-2, 14, 6, 3, -2, 1, 2, 3), 2, 55.543072899353355)
((-69, -12, 51, 15, -1, -7, -4, 21), 2, 55.563316606122946)
((0, 1, 78, -28, -9, -4, -2, 16), 2, 55.58440361061426)
((-10, 6, 31, 9, 8, 7, 4, -1), 2, 55.60554364194001)
((8, -7, -73, -2, 3, -2, 0, 10), 2, 55.6317280647087)
((-11, -8, -1, 19, -3, -3, -4, -11), 2, 55.65379407000341)
((3, -2, -31, -2, 1, 0, -2, -10), 2, 55.67417633075973)
((-5, 5, 27, -7, -1, -2, 1, -11), 2, 55.69584377952469)
((29, 8, 4, -1, -1, -6, -4, 45), 2, 55.72439103242106)
((37, -1, -34, -8, 1, 3, 3, 21), 2, 55.74641427413961)
((5, 8, 55, 15, -4, 0, -3, 54), 2, 55.77148855447139)
((-13, -9, -6, -9, -8, -5, -2, -1), 2, 55.793126353823546)
((-2, 4, -82, -42, -7, -6, -1, 9), 2, 55.81717259778462)
((46, -4, 25, 16, 6, 2, 2, 30), 2, 55.84168639017829)
((10, -3, 22, 6, 6, 1, 0, 23), 2, 55.86254133099635)
((-9, -5, -23, -8, -7, -3, -1, -28), 2, 55.88229639263577)
((-13, 18, 42, 37, 5, 6, 3, -18), 2, 55.9041075270166)
((-24, -10, 23, 2, -5, -3, -9, -69), 2, 55.93009124606789)
((2, -3, -5, 7, -1, -3, 1, 12), 2, 55.95058583248424)
((-13, 11, 38, -6, -3, -4, 0, -35), 2, 55.97099261102422)
((-6, 6, 3, 13, 0, 0, 0, 61), 2, 55.9908092522133)
((1, -3, -6, 7, 7, -2, -1, -31), 2, 56.012667711618406)
((7, -9, 10, 9, 3, 0, -2, 12), 2, 56.03782580855945)
((10, 1, 24, 2, -1, -3, -2, -9), 2, 56.05909356043263)
((9, -2, -17, -27, -6, -5, 1, 37), 2, 56.0796480158556)
((1, -25, -28, -5, 0, -2, -2, 31), 2, 56.10244841429809)
((-1, -1, -3, -1, 3, -1, -2, 2), 2, 56.127175454391505)
((-4, -11, 1, 18, -6, -6, -3, 6), 2, 56.156149202687374)
((-9, -8, -5, 15, 8, 9, 0, -20), 2, 56.179140611770016)
((-2, -7, -18, -11, -3, -3, 0, 6), 2, 56.20707777097995)
((-1, -13, -2, 1, -3, -2, 1, -4), 2, 56.22806157270749)
((-3, -5, -11, 17, -6, -5, -2, -4), 2, 56.25229369567957)
((6, 2, 12, -10, -4, -3, -3, 0), 2, 56.27653038009977)
((-3, 3, 27, 18, 13, 3, 0, 0), 2, 56.29546038980995)
((0, 0, 6, -2, -7, -4, -1, 1), 2, 56.31730858595678)
((-10, -1, 10, 10, 7, -2, -3, -1), 2, 56.3410857044786)
((-6, 2, 2, -5, -9, 1, -1, -1), 2, 56.36203814625029)
((14, 11, -10, -8, -5, -1, 1, 5), 2, 56.3829655000573)
((-25, -6, 7, -20, -8, -3, -1, 1), 2, 56.40359350883125)
((26, -6, -17, -12, -3, 2, -2, 1), 2, 56.42361028355672)
((1, -7, -39, -43, -1, 2, -3, -2), 2, 56.44944803626807)
((15, -5, -11, -15, -5, -2, 1, 3), 2, 56.472173740997555)
((10, 46, 9, 35, 6, 5, 3, 4), 2, 56.49184099476061)
((-75, -31, -1, 5, 0, -9, -19, -37), 2, 56.51741760456692)
((-13, -16, -2, 15, -7, -1, -22, -54), 2, 56.54043980342439)
((-17, -10, -12, -55, -11, -3, 1, -33), 3, 56.61088908895907)
((43, 24, 68, 127, 19, 3, 17, 79), 3, 56.62902996814399)
((2, -9, 34, 32, -22, -1, 2, 40), 3, 56.65844275582169)
((22, 17, -15, -18, -23, -51, -41, 90), 3, 56.678250274114525)
((25, 21, 100, 125, 23, 13, 8, 4), 3, 56.69825393467664)
((33, 35, -11, 29, 0, 7, 81, 107), 3, 56.72826712296353)
((-6, -33, -100, -92, -16, -10, -4, 23), 3, 56.75484440045181)
((6, -15, 1, 126, 15, 15, 31, 71), 3, 56.773916955415835)
((14, -56, -74, -75, -3, 1, 8, -24), 3, 56.793814562309095)
((-11, -5, 15, 14, 18, 2, -30, -43), 3, 56.815138762102805)
((-1, 24, -20, 1, -13, -6, 30, 41), 3, 56.83790038823626)
((-31, 10, 19, -7, -11, 3, -2, 30), 3, 56.86517214620125)
((-14, -4, -37, -15, -8, -11, -16, -90), 3, 56.88530694839691)
((-2, -29, -57, -83, 0, 0, 1, 2), 3, 56.90609004640703)
((-33, -32, 12, 3, -16, -14, -18, 2), 3, 56.9261438828985)
((-21, -21, -40, 0, -10, -8, -6, -106), 3, 56.95348463276636)
((9, 6, 32, 31, 1, -5, -25, -6), 3, 58.76596863206162)
((42, 9, -57, -72, -9, -4, 0, 105), 3, 58.78525671544946)
((7, 2, 50, 36, -9, -10, 12, 10), 3, 58.80664420533587)
((-16, -38, 31, 72, 8, 2, -1, -16), 3, 58.826722559611)
((14, -12, 83, 60, 8, 4, 18, 43), 3, 58.84651297247337)
((81, 20, 34, 1, -1, 1, -30, 45), 3, 58.86732514971528)
((-34, -25, 2, -25, -2, -5, -14, -74), 3, 58.88807061577839)
((-17, 2, 18, 17, 4, 0, 6, -45), 3, 58.91038750071986)
((23, 10, 49, 66, 9, 1, 8, 127), 3, 58.93353456921969)
((-40, 36, 7, 3, 1, 3, -5, 15), 3, 58.95267497572454)
((-14, -16, -13, -6, -9, -7, -5, -32), 3, 58.97524958248495)
((-2, -1, -1, -1, -8, -1, -1, -3), 3, 59.25549127081374)
((-1, -2, 1, -3, 1, -2, 0, -1), 3, 59.278518601300355)
((0, 4, 16, -32, -5, -3, -2, -1), 3, 59.30113312073184)
((3, 14, -2, 8, 5, 5, 1, -2), 3, 59.323293205894075)
((42, 16, -8, -5, 2, 0, -12, 106), 3, 59.34566026676489)
((3, 4, 35, 37, 5, 1, 1, -25), 3, 59.36629454753)
((-16, 4, 73, 59, 8, 3, -10, -85), 3, 59.38907156855087)
((-2, -21, -19, 57, 8, 2, 36, 33), 3, 59.419523796219586)
((7, 104, 56, 17, -2, 1, 19, 3), 3, 59.44576808799489)
((21, 2, 36, 7, 7, 6, 11, -5), 3, 59.465908021819686)
((9, -39, -56, -45, -8, -8, -22, -99), 3, 59.48738902139262)
((2, -20, 74, 42, 2, 4, -8, 1), 3, 59.50924006844453)
((-9, -12, 20, -32, -12, -4, -39, -43), 3, 59.53102953594678)
((-8, -31, -27, 0, -1, -3, -2, -1), 3, 59.951173118930065)
((-22, -6, 18, -9, -2, 3, 3, 3), 3, 59.97077309133331)
((-4, 30, -1, 4, 3, 1, 2, 2), 3, 59.99278663997459)
((21, -29, 28, -5, 1, 1, 2, 4), 3, 60.01867513879631)
((-1, -7, 28, -31, -14, -9, -5, -4), 3, 60.04017039289463)
((-2, 0, 23, 11, 2, 0, -2, -1), 3, 60.06240403140785)
((-1, 4, -12, -14, 4, 2, 0, 0), 3, 60.08183466004952)
((-1, 0, 3, -1, -3, -1, 0, 1), 3, 60.15234894621996)
((14, 2, 24, 36, 5, 3, -1, 0), 3, 60.18025873674115)
((0, 3, 52, 20, 2, 0, 1, 0), 3, 60.20334422569133)
((-1, -1, -54, -19, -5, -3, -2, 1), 3, 60.23076879216845)
((21, -27, 26, -28, -9, -7, -6, -8), 3, 60.25157355705716)
((-12, -23, -10, 10, 0, 1, 0, -4), 3, 60.273239865460084)
((36, 26, -10, 11, 7, 3, 8, 15), 3, 60.298660245668195)
((-70, -2, -23, -40, -19, -10, -10, -16), 3, 60.319003163934454)
((-74, -42, -50, -3, -2, -11, -14, -50), 3, 60.3426291844872)
((11, 38, -8, -32, 2, 5, 16, 35), 3, 60.36337236982625)
((-67, 18, 11, 48, 14, 13, 30, 42), 3, 60.38445595323147)
((-77, -23, -22, 6, -12, 1, 18, 6), 3, 60.40243832209411)
((-72, -1, 11, 11, -8, -11, -19, -29), 3, 60.42449691503562)
((0, -37, 6, -2, 0, 3, 0, 7), 1, 60.47029841563801)
((-17, 3, -17, 3, -3, -3, 9, 6), 1, 60.49081181802787)
((13, -69, -25, 17, -1, -2, -9, -17), 1, 60.510977409998354)
((3, -39, 11, -7, -8, -2, 0, -13), 1, 60.53359078906781)
((-76, -71, -20, 8, 5, 5, -5, -1), 1, 60.552295577276915)
((33, 31, -5, -19, -5, 0, -3, -4), 1, 60.57552361148094)
((-1, 24, -13, -1, -4, -1, -12, -2), 1, 60.59812216584399)
((-27, -7, -3, 7, -1, -3, -4, 0), 1, 60.619234828481)
((-9, -13, 2, -8, -3, -3, -6, -5), 1, 60.64600254642841)
((6, 26, 0, 3, -2, 0, 0, 4), 1, 60.667348413100704)
((-27, 17, 8, -14, 5, 1, -7, -7), 1, 60.68782361336253)
((25, -1, -4, 5, -2, -2, -1, 5), 1, 60.71206086796375)
((2, -43, 2, 5, -3, -7, -14, -6), 1, 60.73354129735567)
((14, -2, 5, 5, -2, 1, 6, -4), 1, 60.758023159612485)
((8, -12, -1, -23, -8, -1, 0, 0), 1, 60.78202150836826)
((6, -6, 7, -2, 0, -2, -3, 1), 1, 60.80099884310272)
((-20, 37, 13, 32, 20, 3, -2, -17), 1, 60.822204445245234)
((4, 3, 5, 13, -1, -1, 2, -7), 1, 60.84837062222144)
((-41, -21, -3, -32, -7, -4, -4, -7), 1, 60.8672259382186)
((18, 3, -18, 3, 0, -2, 6, -2), 1, 60.88764469055991)
((19, -12, 5, 11, -1, -4, -1, -7), 1, 60.907679711077876)
((-7, 13, 0, -6, 0, 0, 2, 1), 1, 60.927957628708384)
((13, 5, -16, 20, 1, -3, -14, -9), 1, 60.95407419993625)
((23, -6, -2, -13, -3, 1, 2, 3), 1, 60.975165765875694)
((-6, 1, -2, -11, 23, 8, 18, 1), 1, 60.99548644708236)
((6, 3, 0, 4, 2, -1, -3, 0), 1, 61.016596828995304)
((46, -14, -11, -14, -4, 7, -2, -5), 1, 61.042283483737585)
((-12, -10, -2, 4, -3, -2, -1, -4), 1, 61.065674589711996)
((5, 0, 5, -15, 2, 0, -3, 8), 1, 61.08655575885676)
((11, 23, -1, 8, -1, -2, -6, -6), 1, 61.108413648080855)
((-10, -7, -6, 4, -4, -2, 2, 3), 1, 61.130885622258496)
((-4, -7, 6, -9, 0, 1, 3, 2), 1, 61.15553682827687)
((-40, -42, 13, -2, 1, 0, 6, -4), 1, 61.18389535125716)
((-42, 10, -4, -5, -1, 1, 3, -9), 1, 61.204597483563106)
((-3, -6, -10, -12, -2, 0, -4, -3), 1, 61.233413291717724)
((-15, -26, 4, 12, 4, -5, -6, -1), 1, 61.270376416400914)
((7, -13, -3, -6, -10, -3, -18, -19), 1, 61.299205338718885)
((-10, -16, -3, 0, -1, 1, -2, -4), 1, 61.3284368088337)
((57, 14, -10, -13, -4, -2, -2, 2), 1, 61.36344250209114)
((27, -18, -13, -17, -3, 0, -4, 10), 1, 61.39339240028532)
((10, 11, 0, -13, -8, 0, 3, 2), 1, 61.4302660065491)
((-15, -18, 10, 1, 1, 1, -4, 1), 1, 61.47406104015842)
((9, -4, -6, -3, 1, -3, -4, -7), 1, 61.4980668012674)
((18, -5, -5, -51, -5, 0, -1, -1), 1, 61.51815427843878)
((-18, -20, 5, 7, -3, -2, 1, -7), 1, 61.54445558831562)
((31, 2, 7, 21, 11, 4, 2, 10), 1, 61.56875898391462)
((8, 10, -4, -7, -2, 0, -1, -2), 1, 61.593515103239824)
((31, 15, -8, 20, -1, 1, 6, 16), 1, 61.61567119713495)
((4, -3, 2, -4, -9, -4, -1, -2), 1, 61.6352306866861)
((-30, -2, 2, -3, 6, 2, -1, -5), 1, 61.65989956831595)
((-25, -19, 2, -5, -2, -2, -4, -7), 1, 61.67986217584497)
((1, -2, -4, -1, -2, -5, -3, 3), 1, 61.70548725103759)
((-5, -7, -4, -21, 1, -2, -2, -2), 1, 61.72863032827031)
((-10, -18, -6, 1, -5, -8, -2, -5), 1, 61.74892991277941)
((56, 7, -4, 6, 2, -7, -1, 0), 1, 61.76990288106765)
((4, 9, -2, -5, 3, 5, 2, 4), 1, 61.79144146892314)
((-12, 6, -2, -3, 1, 2, -2, 1), 1, 61.81199079271696)
((-6, -2, -2, -13, -4, 1, 0, -3), 1, 61.83252700234743)
((24, 7, -3, 3, 1, 4, 1, 0), 1, 61.856805880162774)
((5, 2, -3, -3, 0, 3, 1, 2), 1, 61.88259915875493)
((-3, 12, 14, 5, 0, 1, 0, 9), 1, 61.90343186251339)
((15, -5, 10, -6, -2, -2, 2, 11), 1, 61.92803517332648)
((-13, -5, -36, -40, -6, -1, 2, 75), 1, 61.95164066736267)
((25, -3, 45, 16, 1, -2, 2, -9), 1, 61.978718563782444)
((-35, -11, -47, -29, -11, -8, 6, 6), 1, 62.000602111152226)
((33, 0, 0, 6, 2, 3, -1, 2), 1, 62.020677614522285)
((-6, -8, 3, 19, 1, -12, -17, 12), 1, 62.04151430954785)
((-17, -12, 15, -17, -7, -6, -19, -83), 1, 62.06983919184824)
((43, -36, -15, -6, -5, -7, -13, 92), 1, 62.09588049918207)
((8, 16, -1, 3, 8, 15, 7, 39), 1, 62.12427893483344)
((37, -8, -57, -10, -4, -8, 4, 54), 1, 62.15336158770325)
((43, 37, 48, 41, 6, -1, 0, 24), 1, 62.191158317030904)
((39, -52, -41, -6, -8, -8, 0, -9), 2, 62.265094829655574)
((-14, 38, -13, -1, -4, -2, 1, -11), 2, 62.28672863774062)
((-33, -6, -23, 6, 2, -2, 3, -28), 2, 62.31120308764424)
((46, -13, -40, 32, 0, 0, -2, 35), 2, 62.33616675285903)
((-5, 2, -37, -8, 2, 1, 1, -31), 2, 62.36106142617097)
((8, -14, -9, -14, -4, 7, 2, -31), 2, 62.38561513123571)
((-6, 1, 2, -15, -5, -5, 1, 18), 2, 62.406907400892564)
((7, -3, -41, -12, -2, -3, 0, -12), 2, 62.427490365366296)
((-1, 10, 28, 23, 4, 2, -8, 34), 2, 62.45047094100964)
((10, 8, 53, 24, 0, 5, 7, -47), 2, 62.47117991548777)
((5, -1, -8, 16, 1, -3, -1, -15), 2, 62.4930577610474)
((-33, -28, -30, -1, 3, 2, 1, -11), 2, 62.512630364761904)
((-7, 14, 37, 1, -3, 0, -3, -15), 2, 62.53301946769041)
((-7, 14, 37, 1, -3, 0, -3, -15), 2, 62.551224777330056)
((42, 11, 3, 10, 2, -2, 0, 52), 2, 62.575424399984264)
((-22, -10, -24, -1, -2, 3, 0, -16), 2, 62.60094912331818)
((-27, 4, 21, -14, 1, -2, -2, 43), 2, 62.629431375578804)
((-8, -2, -17, 6, 4, 0, -2, -12), 2, 62.65743353542449)
((3, 11, 2, -15, 6, 7, 8, -86), 2, 62.6903529363467)
((12, 3, 41, 11, 1, 4, 3, -28), 2, 62.713876894497695)
((8, -5, 1, -5, 3, 16, 0, -15), 2, 62.734663413593914)
((-6, -3, 3, 7, -2, -11, -8, 53), 2, 62.75942751545333)
((59, 7, -2, 4, 5, 8, 6, -19), 2, 62.78379020987793)
((-1, 0, 16, 2, 2, 0, 1, -6), 2, 62.80593832123884)
((-8, -8, -21, 2, -1, 3, 0, 4), 2, 62.829957196511174)
((-46, -12, 4, -24, -5, 0, -6, -4), 2, 62.85041814224762)
((-2, -3, -34, 7, 2, -2, -1, -3), 2, 62.87224695223993)
((3, 0, -47, -22, -2, -3, -2, 56), 2, 62.897681016792404)
((13, -4, -45, -26, -1, -2, -2, 21), 2, 62.916343041425364)
((-7, 4, 22, 25, 8, 3, 2, -38), 2, 62.93560489648649)
((-3, -2, 18, 22, 2, -5, 1, -31), 2, 62.95841213710116)
((-2, -2, -11, 1, 0, -1, 0, -7), 2, 62.98170118067383)
((1, -1, -11, 0, -1, -2, -2, 12), 2, 63.00924434480214)
((-17, -16, -33, -21, -6, -2, -2, 18), 2, 63.02862080624736)
((-4, 10, 21, 32, 6, 2, -2, -25), 2, 63.048873635913196)
((7, 3, 17, 14, 2, 1, 4, 14), 2, 63.074331077887294)
((13, 4, 21, -3, -2, -1, 0, 7), 2, 63.09795481771598)
((2, -1, -1, 25, 5, 13, 2, -5), 2, 63.118652958754815)
((-12, -3, 13, -6, -1, 1, 1, -18), 2, 63.145355105885464)
((-7, -6, 11, -9, -3, -4, -7, 44), 2, 63.174738814331384)
((8, 7, 36, 11, 1, -1, -1, 3), 2, 63.20591859297571)
((-3, 4, 18, 3, 2, -1, 0, -11), 2, 63.22400245405909)
((36, -6, -27, -16, -5, -4, -2, -47), 2, 63.24900546176394)
((6, 3, 7, 8, -1, 4, 0, 0), 2, 63.273958863720466)
((-5, -1, -10, 5, -4, -2, -2, 12), 2, 63.30018034825516)
((-2, -12, 0, -2, -3, -2, 1, 15), 2, 63.329061727226545)
((1, 5, 1, -11, -2, -5, 2, 10), 2, 63.35144190226071)
((4, 9, -14, 20, 5, -1, 0, 2), 2, 63.38001025185466)
((4, 8, 25, -5, 0, 1, -1, 10), 2, 63.409545628450665)
((2, -4, 4, -10, -7, -2, 0, -1), 2, 63.431787819679116)
((9, -4, -36, 0, 2, 2, 1, 10), 2, 63.456128277044115)
((0, 9, 19, 2, -2, -5, -2, 4), 2, 63.47970469184852)
((-14, -19, -72, -3, -2, -4, -4, -23), 2, 63.51377528824076)
((2, 1, -10, 9, 3, 4, 2, -8), 2, 63.54268574644392)
((-3, 3, 21, -1, 0, 0, -1, 10), 2, 63.566178914820085)
((2, -2, 20, -5, -4, -3, -3, -4), 2, 63.59446103354432)
((-4, -10, 14, -3, -4, -5, -5, -3), 2, 63.62585748097448)
((0, 6, -4, 2, 1, 6, 3, -2), 2, 63.64822853311241)
((-27, -8, -10, -9, 3, 0, 0, -2), 2, 63.67304509162524)
((-1, 34, -3, -13, 16, 1, 1, 3), 2, 63.71414487957492)
((10, -13, -24, -50, -22, -7, -1, 3), 2, 63.773790375230426)
((-46, -10, -19, 27, -17, -21, -16, -78), 2, 63.831068479310126)
((-22, -34, 51, 27, 19, 13, 23, 30), 3, 63.86432086594531)
((5, 6, 58, 3, 3, -9, 11, 6), 3, 65.77310216674488)
((-4, 0, 7, 0, -2, 1, 1, 8), 3, 65.79349412057846)
((7, -30, -114, -79, -14, -6, -7, -7), 3, 65.81413353297272)
((8, 14, 20, 14, 5, 5, 5, 2), 3, 65.83946952639054)
((-10, -5, -29, -10, -9, -7, 26, -5), 3, 65.86049837241829)
((8, -11, 14, 2, 17, 6, 8, 11), 3, 65.88210082054749)
((-8, -10, -25, 5, -4, -3, 6, 8), 3, 65.90435327503423)
((15, -7, -42, -23, -11, -3, 0, 21), 3, 65.92743591307932)
((9, -3, -9, 8, 1, 2, 7, -27), 3, 65.94790826243607)
((4, -4, -53, 14, -3, -2, -4, 4), 3, 65.9752364683216)
((4, -4, -53, 14, -3, -2, -4, 4), 3, 65.9940188011488)
((4, -1, 16, -8, 1, -3, -1, 1), 3, 66.01676560257584)
((-1, 3, 19, -16, -2, 0, 4, -5), 3, 66.0366289986082)
((14, -1, -3, 1, -3, 0, -3, 3), 3, 66.06204652791122)
((-1, 20, 37, 49, 16, 9, 4, -6), 3, 66.83177493358816)
((-9, -19, 16, 26, -6, 1, 3, 2), 3, 66.85271939282563)
((-6, -10, -94, -38, -4, -2, 0, -34), 3, 66.87344091128611)
((8, 47, 44, 33, 4, 3, 7, 8), 3, 66.8967647359007)
((0, 4, -6, 11, -2, -3, 8, -3), 3, 66.919038287085)
((-20, 8, 23, -5, 4, -7, -15, -44), 3, 66.93901229823432)
((-2, -6, -6, 4, -1, -1, 0, -1), 3, 66.95826788130428)
((-8, -16, -14, -78, -12, -5, -1, 39), 3, 66.98646675360027)
((-16, 5, 17, 24, 4, -3, -26, -12), 3, 67.00967654201179)
((-1, 1, -28, 7, -9, -3, 8, -24), 3, 67.03261150317391)
((-4, 7, -13, 26, 4, 4, 2, -48), 3, 67.0553708485833)
((2, 6, 5, -8, 2, 3, 3, 7), 3, 67.07596806758241)
((9, 3, 28, 1, -3, 0, -2, 3), 3, 67.10188222454983)
((8, -2, 1, -19, -9, -2, 8, -11), 3, 67.12374467522204)
((6, 3, 9, 14, 7, 0, -1, -11), 3, 67.14343758713079)
((6, 2, 14, 15, 4, 6, -3, -18), 3, 67.16966420329462)
((14, 48, 15, 18, 5, 8, 9, -9), 3, 67.19836996651327)
((12, 5, 0, -7, 0, 1, 8, 19), 3, 67.22411934116724)
((-25, 15, 30, 65, 9, 6, 11, -23), 3, 67.24476787645774)
((5, 6, 56, 12, 4, 0, 2, -5), 3, 67.26612115548323)
((6, -16, -5, -26, -2, -3, -9, 11), 3, 67.28609630699458)
((5, 2, 17, 2, 3, 4, 8, -7), 3, 67.31145054620491)
((11, -1, 8, -22, -8, -4, 8, 11), 3, 67.33204605466098)
((13, -16, -65, -40, 0, -4, -4, 6), 3, 67.3530737603267)
((2, -11, 13, -1, -3, 1, -6, -6), 3, 67.37405984277828)
((-4, -24, 12, -26, -15, -8, -20, 25), 3, 67.40055786510544)
((1, 9, -16, -35, -5, -2, -8, -7), 3, 67.42392274275315)
((1, 9, -16, -35, -5, -2, -8, -7), 3, 67.43205922584242)
((3, 6, 15, -4, 2, 0, -6, -19), 3, 67.45787360113215)
((-3, -8, -60, -23, -6, -1, 3, -3), 3, 67.47951653211345)
((-17, -13, -22, 18, -10, -6, -6, -33), 3, 67.50798795093478)
((-4, 0, -56, 8, 0, 2, 3, 4), 3, 67.52748757147931)
((-57, -16, -4, -26, -11, -4, -7, -29), 3, 67.5492114681648)
((32, -14, -44, -43, -13, -8, -6, -4), 3, 67.57209169194944)
((3, -2, -4, 3, -1, -5, -1, 10), 3, 67.59427914580041)
((5, 4, 24, 28, 0, 0, 12, 44), 3, 67.61688568269768)
((3, -9, -81, -25, -15, -9, 3, 16), 3, 67.63630148663296)
((-10, -12, -46, 1, -7, -6, 0, -14), 3, 67.65637185837387)
((4, 2, 22, 14, 1, 0, -4, -3), 3, 67.67567191556303)
((0, -12, 10, -49, -11, -7, -4, 10), 3, 67.69908753932111)
((-30, -2, 24, 12, 3, -4, -12, -79), 3, 67.72245868895999)
((6, -3, -81, 14, 0, -2, 1, 15), 3, 67.7420945827672)
((-25, -11, -12, -10, -7, -4, -2, -63), 3, 67.76576393707711)
((0, -12, -23, -42, -15, -7, 0, -9), 3, 67.7874325262041)
((36, 6, -5, 24, 6, 4, 8, 0), 3, 67.81008638812564)
((6, 9, 28, 45, 11, 7, 0, -9), 3, 67.83508027293425)
((-4, -1, 16, -4, -7, -1, 10, 33), 3, 67.8548438872889)
((2, 0, 4, -2, -4, -4, 2, 85), 3, 67.87540860597014)
((23, 7, 22, -1, 6, -2, -21, 8), 3, 67.89902721416968)
((-14, 9, 48, 27, 6, 0, -7, -47), 3, 67.92415737224097)
((-1, 5, 22, 7, 5, 5, 4, 11), 3, 67.9427891772801)
((-8, -6, -17, -10, -6, -4, -9, 10), 3, 67.96332937817769)
((1, -11, -60, -66, -7, 2, 12, 15), 3, 67.98864142399287)
((6, 6, 10, 27, 7, -1, 8, 13), 3, 68.01221897915931)
((-14, 4, 22, 13, 4, 2, 12, 0), 3, 68.03365094316493)
((4, -17, -39, -81, -10, -5, 5, 6), 3, 68.05360556815972)
((-24, 1, -4, -11, -1, -2, -12, -18), 3, 68.07414804978137)
((-8, -10, -4, 11, 0, -4, -6, -26), 3, 68.0962231779723)
((-1, 6, -4, 30, 6, -2, -5, -15), 3, 68.1195464324059)
((-4, -6, -21, -55, -5, -1, 13, 18), 3, 68.14067334956829)
((10, 1, 13, 6, 4, 1, -1, 13), 3, 68.16759216548478)
((-13, -2, 2, 10, -3, -2, -6, -26), 3, 68.19025172921647)
((7, 7, 4, 30, 2, -2, 2, 15), 3, 68.2179362982366)
((-3, 6, 12, 40, 7, 5, 7, -15), 3, 68.23850215727987)
((-17, -7, -17, 0, 3, 0, -12, -34), 3, 68.25995521798305)
((4, 5, 50, 50, 5, 1, 8, 42), 3, 68.28353619423558)
((-6, -5, -18, -3, -3, -2, 1, -6), 3, 68.30447210075783)
((3, -4, -23, -20, -8, 1, 9, -14), 3, 68.32569993995993)
((-2, 2, -6, -32, -2, 0, 2, -5), 3, 68.34782296335618)
((-1, -5, 12, 1, -5, -4, -1, 7), 3, 68.36693200990518)
((-5, -6, -39, -34, -9, -4, -7, -25), 3, 68.38821800757087)
((4, 3, 23, 5, -5, 1, 8, 6), 3, 68.40859057524993)
((2, 7, 10, 30, 5, 1, -7, -3), 3, 68.43241273807196)
((-3, -5, 14, -2, -1, -1, 8, 0), 3, 68.45274938434704)
((0, -3, -18, -4, 1, -1, -11, -7), 3, 68.46978012109504)
((1, 0, 23, 15, -1, 2, -6, -9), 3, 68.49144243823086)
((-1, -6, -17, 0, -6, 1, 3, -17), 3, 68.51341607420107)
