((-35, -27, -10, 9, -5, -7, -12, -110), 1, 0.0)
((-94, -25, -5, 43, 26, -4, -13, -41), 1, 0.021905784429382798)
((72, -94, 11, 18, -9, -17, -79, -23), 1, 0.04730962938804182)
((-33, -40, 9, 0, -7, -3, 0, 3), 1, 0.07350317505298407)
((14, 51, -12, 7, 1, 6, 0, 1), 1, 0.09714915194126679)
((1, -57, -5, -16, 3, -11, -4, 1), 1, 0.19021010600235258)
((-27, 51, -18, -2, -2, 11, 41, 10), 1, 0.2114510593678175)
((-3, -27, 24, -4, 4, 31, -4, 24), 1, 0.231695336318421)
((-20, -51, -2, 28, -1, -16, -5, -3), 1, 0.2517645676973069)
((-4, -42, 4, 6, -3, -10, -2, -6), 1, 0.27739363415703583)
((30, 16, 3, -1, -4, -18, -13, 1), 1, 0.3015687390275791)
((-10, 55, -3, 6, -2, -6, -7, -5), 1, 0.3288068563126736)
((10, 16, -2, -3, -4, 4, 29, 9), 1, 0.3498288601682376)
((22, 23, 6, 0, 4, -2, -21, -5), 1, 0.37520647680018976)
((46, 34, -5, 6, 9, 9, 7, 2), 1, 0.40181511424431915)
((-17, -49, 6, 0, -3, 6, 9, 3), 1, 0.42167851027665754)
((-9, -11, -1, 3, -4, -9, 3, 1), 1, 0.44458553256902467)
((26, -18, 6, 4, 6, -2, 10, 3), 1, 0.4689128757706709)
((29, 39, -8, 0, -3, 4, 7, 0), 1, 0.4892335569773336)
((30, 1, 11, -5, -4, -2, -1, -1), 1, 0.5134177847441227)
((20, -18, 3, 3, 9, 8, 0, 4), 1, 0.5359285312308099)
((-2, -39, 0, -4, -1, -13, -36, 1), 1, 0.5551732808614751)
((2, -15, 1, 7, 3, 10, -11, -5), 1, 0.5788842583855096)
((-65, -38, 1, 14, 7, 6, 27, -6), 1, 0.5984642744532107)
((39, -1, 10, -2, -6, 2, 5, 1), 1, 0.6197576844720893)
((-10, 9, -41, -3, -1, 6, 7, 2), 1, 0.6403577543762818)
((-4, 6, 3, 2, 14, 21, 12, -1), 2, 0.6618718244481075)
((6, 7, 5, -3, -3, -10, 1, 0), 1, 0.6876405852566014)
((37, -5, 16, -1, 2, 7, -2, 3), 1, 0.710327517677037)
((6, 1, 2, 0, 2, -3, 1, 0), 1, 0.730474863855028)
((2, 0, 1, 1, 9, 24, 5, 2), 1, 0.7492053102098323)
((8, 9, 10, -5, 0, -13, -3, -11), 1, 0.7786819581612574)
((-43, -2, 1, -5, -11, -14, 13, -6), 1, 0.8019949493365659)
((-4, -2, -5, 1, 4, 15, 7, -1), 1, 0.822808837121521)
((14, 15, -8, 0, -3, 2, 3, 5), 1, 0.8476128516520139)
((16, -12, 3, 3, 1, -9, 0, 3), 1, 0.8687488917106514)
((-17, 3, -3, -2, -10, -12, -5, -2), 1, 0.8954675740907466)
((4, 4, -6, 0, -6, -17, -8, 2), 1, 0.9185063081976635)
((0, -1, 5, 0, -5, -3, 2, 1), 1, 0.9384449681240303)
((0, -1, 5, 0, -5, -3, 2, 1), 1, 0.9584469181431029)
((-4, 7, 8, -5, -5, -12, -6, 4), 1, 0.9810386303339721)
((1, 1, 3, 15, 16, 0, 0, 1), 1, 1.0040933295093193)
((11, -6, -6, 3, -3, -9, -3, -1), 1, 1.0243307642877384)
((4, -6, 4, -2, -2, 12, 4, -1), 1, 1.0439700791810376)
((0, -8, -7, -4, -3, -3, -2, 2), 1, 1.0639007565731893)
((-12, -32, -1, -5, 0, -3, -3, 2), 1, 1.0874794521016586)
((-12, -32, -1, -5, 0, -3, -3, 2), 1, 1.107358243021412)
((-2, -2, -8, 1, -2, 3, 5, 1), 1, 1.129616969499307)
((-3, 3, 1, 9, 13, 10, 6, -4), 1, 1.1496451478450864)
((-3, -4, 0, -4, -5, 0, 0, 7), 1, 1.171736811285479)
((7, 1, 16, -10, 7, 1, 3, 17), 1, 1.197984524146881)
((-19, -31, -26, 2, 1, -1, -23, -85), 1, 1.2200904421126575)
((7, -2, 34, 2, 7, 7, 12, 37), 1, 1.2453665665238742)
((7, 3, 22, 6, -2, -1, 1, 15), 1, 1.2678214352710555)
((2, -3, 24, -3, 0, 4, 4, 10), 1, 1.2897163862611463)
((-15, -70, -101, -76, -36, -25, -51, 12), 1, 1.3179067058419036)
((-34, 8, 9, -3, 0, 0, 9, 0), 1, 1.3443260431889312)
((5, -20, -34, -94, -30, -5, -19, 95), 1, 1.3650053682542598)
((-17, -90, -128, -128, -43, -14, 41, 12), 1, 1.3865736055225453)
((-30, -9, -23, -23, -6, -28, 36, -71), 1, 1.4126211848475536)
((-2, -13, 3, 7, -9, 0, 5, 37), 1, 1.4351359226013483)
((4, -16, -53, -3, 9, 1, -19, -17), 1, 1.4555033586512711)
((-8, -13, -26, 30, -12, -9, 1, 10), 2, 1.539469925517254)
((-15, -7, -27, 4, 7, 6, -3, -31), 2, 1.5607895638628395)
((4, 0, 58, 57, 2, -2, 1, -12), 2, 1.581141034844332)
((-5, -1, -66, -12, -5, -17, -3, -4), 2, 1.6034550688807176)
((1, -21, -63, -57, -19, -11, 9, 1), 2, 1.6278485530801463)
((6, 3, -1, -23, -3, -4, -7, 6), 2, 1.6489532331829386)
((9, -6, -1, -19, -1, 1, 1, 15), 2, 1.6700761590782225)
((0, -14, -23, -4, -9, -4, 1, 0), 2, 1.6951036845667393)
((13, 7, 55, 30, 3, -5, -4, -2), 2, 1.7203558613753107)
((-13, -3, -32, -14, -7, -21, 0, -12), 2, 1.7436557383872657)
((-10, -20, -41, -39, -13, -6, -4, -17), 2, 1.764634408485662)
((5, 8, -9, 38, 11, 10, 4, 7), 2, 1.786969539219616)
((-21, -10, -28, -37, -7, -9, -3, -19), 2, 1.8152145961778485)
((-37, -9, -20, -43, -8, -5, -4, -7), 2, 1.828264329076552)
((-5, 0, -16, -6, 0, 1, -1, -6), 2, 1.8490320321992624)
((-3, -4, 12, 15, 9, 25, 2, -3), 2, 1.8691331937150086)
((-6, 1, 17, 6, -1, -3, -1, -13), 2, 1.8901911189745408)
((5, 2, -34, 6, -3, -6, -2, 3), 2, 1.9146319281982451)
((23, -1, -10, 12, 0, 10, 2, 34), 2, 1.9403539341634788)
((-6, -8, -11, -13, -5, -3, 0, -1), 2, 1.9639423227692094)
((-8, 0, 55, -6, 1, -4, -2, -15), 2, 1.984410110677837)
((-25, -6, 37, 0, 2, 1, -1, -9), 2, 2.009295090912512)
((0, -20, -85, -20, -10, -4, -2, -2), 2, 2.031146708145435)
((0, 6, -30, 9, -7, -5, -1, -4), 2, 2.0520033595065423)
((0, 7, 26, 21, -2, -3, -2, 4), 2, 2.0783531347696953)
((-5, -6, 19, -23, -8, -9, -5, -3), 2, 2.0979314402943503)
((-8, 0, 16, 12, 2, -1, 1, 51), 2, 2.1257271946124736)
((0, 6, -7, 21, 6, 3, -1, 1), 2, 2.148852026052711)
((-8, -5, -69, -39, -4, -5, -6, -18), 2, 2.1693591564513985)
((-2, 4, -15, -17, -3, -2, 0, 3), 2, 2.1914103370397)
((6, 0, -25, 11, 6, -1, 3, 0), 2, 2.218930123746386)
((13, 9, 33, -3, -2, -4, -2, 10), 2, 2.240518317350209)
((-10, -12, -5, -4, -3, 2, -1, -6), 2, 2.262139581452924)
((16, 0, 6, 13, -6, 7, 4, -5), 2, 2.2841696653436565)
((1, 0, 84, 20, 1, -6, -18, 2), 2, 2.318252235537216)
((-9, 3, 4, -18, 0, -2, 0, -5), 2, 2.3472567736079175)
((-1, -6, -13, -23, -25, -2, -8, -4), 2, 2.3691163733750553)
((-8, -2, 15, 3, -2, -3, -2, -2), 2, 2.392117475534958)
((-2, 0, -4, -16, -12, -4, 1, -1), 2, 2.413790626110071)
((-2, -1, 4, -9, -8, -4, 0, -1), 2, 2.4375956835016415)
((-2, 2, -15, 9, 4, 3, 0, 0), 2, 2.461465171347948)
((-5, -1, -20, 5, -6, 2, -1, -2), 2, 2.482442701084313)
((-12, -1, -7, 2, 3, 4, 6, -1), 2, 2.5047202435357154)
((14, 16, -5, 6, 12, 3, 6, 13), 2, 2.5326790696242334)
((3, -18, -24, -13, -10, -4, -5, -18), 2, 2.55236057791267)
((-29, -4, -13, -2, -3, -3, 1, 34), 2, 2.5725723545453976)
((15, 46, 12, 16, 8, 13, -17, -65), 2, 2.594446779018935)
((42, 20, -12, -33, 8, 8, 16, -13), 3, 2.641700530667471)
((-39, -39, 2, -7, -7, -23, -24, -37), 3, 2.6628975800947527)
((-16, -8, 16, 29, 0, 8, 3, 50), 3, 2.6837359856633687)
((-1, 23, 50, 22, 3, -1, 7, 47), 3, 2.7038673667729296)
((4, 9, 27, 6, 3, -3, 21, 34), 3, 2.7272407971358668)
((0, 12, 8, 55, 18, 6, 3, -5), 3, 2.7520567854676825)
((10, -2, 48, -6, -5, 8, 1, -8), 3, 2.7753367061440994)
((-43, 13, -1, 5, -6, 1, 22, 10), 3, 2.795245146476652)
((-10, 3, -12, -13, 0, -1, -5, -20), 3, 2.8150577963986225)
((5, 7, 12, 7, 15, 7, 2, 23), 3, 2.8449689222837575)
((-13, -17, -85, -33, -14, 0, -2, 3), 3, 2.865236576655991)
((2, -5, -1, -7, -3, -3, 4, 28), 3, 2.8868652531119054)
((0, -8, -62, 5, -4, -9, 7, 5), 3, 2.916588219261969)
((-10, 7, 18, 14, 23, 6, 6, -10), 3, 2.949136432343176)
((-4, 5, 52, 6, -7, -2, -12, -6), 3, 2.9721637628297857)
((-8, 0, -25, 13, 2, 2, 10, -9), 3, 2.9960372419431995)
((1, 4, 20, 10, 2, 2, 17, 20), 3, 3.0173585908318312)
((-9, -17, -41, -26, -17, -8, -12, -19), 3, 3.0398037665017514)
((-7, -1, -11, -1, 0, 0, -8, 2), 3, 3.0631538194430585)
((-2, 2, -4, -4, -8, -4, 4, 7), 3, 3.0848115751307565)
((-2, -8, -12, 14, 5, -8, 6, 20), 3, 3.104786726642107)
((5, 4, -9, 5, -6, 3, 0, 15), 3, 3.1257129400870896)
((-8, -7, -1, 4, 5, 0, -10, -19), 3, 3.1473148180352815)
((-1, -3, -8, -14, -9, -1, -3, 10), 3, 3.17323809789894)
((16, -2, 12, 25, 6, -6, -8, 16), 3, 3.194870765621962)
((0, 3, 22, -9, -5, -3, 6, 2), 3, 3.2141360417691804)
((-4, 4, -21, -24, 5, 2, 9, -16), 3, 3.2438128232569996)
((2, 2, 41, 17, 8, 2, 10, -11), 3, 3.26640681617193)
((-1, 0, 3, 2, -3, -6, -6, -4), 3, 3.2927868110288974)
((-13, -18, -48, -78, -25, -12, -3, -7), 3, 3.316530859051823)
((2, -6, -26, 19, -5, 1, 1, -2), 3, 3.3540447785958607)
((5, 9, -8, 8, 4, 4, -1, -2), 3, 3.3776286057534683)
((1, 1, 15, 15, 6, 1, 4, 3), 3, 3.3996467158428785)
((2, 11, -13, 3, 2, 2, 6, 7), 3, 3.4191394942152287)
((-2, 5, 18, -8, -1, 1, 7, -6), 3, 3.4432860900350035)
((0, -1, 21, 6, 4, 0, -1, -6), 3, 3.4645641051664673)
((2, -5, 28, 19, -1, 2, 0, 4), 3, 3.4838863994152223)
((2, 5, 24, 3, 5, 0, -2, -7), 3, 3.5037897081186364)
((-2, -4, 2, -10, -4, -9, -15, 5), 3, 3.5249434237887503)
((-9, 3, 10, -4, -2, 6, -6, -42), 3, 3.5490620807387723)
((2, -1, -3, 16, -4, -3, 0, 15), 3, 3.5708601009562506)
((7, 10, 47, 14, -1, -6, -8, 15), 3, 3.5920434660391636)
((-7, -13, -11, 0, -6, -3, 7, 12), 3, 3.61243256896767)
((3, 1, -11, 8, 18, 6, -17, 0), 3, 3.632055918792539)
((-1, -3, 51, 21, 2, -2, -1, -1), 3, 3.659519827759719)
((-4, -14, -67, -40, -17, -7, -2, 6), 3, 3.680885650767549)
((-1, 0, 36, -3, 0, 1, 3, -6), 3, 3.701311815462055)
((-1, 1, 2, -4, 1, -6, 6, 17), 3, 3.7259385036967685)
((0, -3, -4, -9, -2, 1, -9, 0), 3, 3.74669252247511)
((-1, -5, -27, -18, -4, 1, 7, 0), 3, 3.767849089050301)
((2, 2, -16, -13, 3, 5, 6, 3), 3, 3.793372672022187)
((0, -2, 33, -13, -8, -9, -4, 0), 3, 3.8125541315601463)
((-4, 5, 16, 2, -2, 5, 2, -17), 3, 3.832711170815399)
((-1, -9, -19, 4, -8, -3, 4, 11), 3, 3.8580591380345517)
((-3, -10, -3, 7, -12, -9, -14, 13), 3, 3.881101293227561)
((2, 4, -19, -20, 2, 0, -4, 0), 3, 3.900311261816289)
((-4, -6, -20, -18, -8, 3, 4, 3), 3, 3.9224388466606492)
((-3, -6, -13, -1, -11, -4, -3, -1), 3, 3.941813597562818)
((-1, 3, 6, 17, -1, -2, -3, -3), 3, 3.9673679703095344)
((-3, -4, 11, -14, -8, -2, 14, 3), 3, 3.9884692293262343)
((-2, -1, -34, 6, 1, -3, -2, -4), 3, 4.00852249563669)
((1, 1, 15, -2, -1, -3, -5, -5), 3, 4.029159627306881)
((3, 1, 45, 5, 5, -3, -2, 5), 3, 4.049361710862348)
((0, 0, 17, -11, 3, 3, -3, 2), 3, 4.077744751626299)
((0, 15, 36, 18, 2, -3, -6, -5), 3, 4.09834254080643)
((1, 3, -18, 16, 10, 2, 3, 3), 3, 4.123117476105139)
((0, -1, 34, 1, 3, -1, 1, 1), 3, 4.145921295633725)
((-1, -6, 0, -5, 12, 4, -2, -3), 3, 4.17455863713053)
((-3, -7, 4, -10, -6, -8, 8, -1), 3, 4.195595465692493)
((0, -4, 9, 0, -2, 2, -11, -1), 3, 4.216043867446598)
((-2, 0, -1, -8, -12, -2, 0, -2), 3, 4.237830484043769)
((-2, 1, 3, 4, -7, -6, -1, -1), 3, 4.260169035863815)
((-14, -6, -4, 0, 3, 2, -1, -2), 3, 4.284244929237685)
((2, -1, 11, -2, 6, 3, -2, -2), 3, 4.309326621922661)
((3, 4, -45, 7, 7, 5, 2, 2), 3, 4.334650071358154)
((-14, -2, -4, 13, -4, -4, -2, -5), 3, 4.354127454843089)
((4, -1, 18, -1, 18, 5, -1, 2), 3, 4.37556455047784)
((9, 2, -16, -26, -2, 3, 4, 6), 3, 4.396665239313525)
((-10, -10, -21, -8, -8, -8, -6, -7), 3, 4.418167905765043)
((-105, -31, 43, -18, 0, -6, -11, -25), 3, 4.439485833567582)
((26, -23, 27, 1, -2, 3, 17, 25), 3, 4.460649812495973)
((-26, 12, 2, 7, 8, 1, 10, 7), 3, 4.485200096474628)
((-43, -10, 0, 16, 4, 18, 10, 6), 1, 4.5766725262269015)
((-1, 1, 24, 4, 10, -10, -11, -14), 1, 4.597429966091335)
((-2, 11, 4, -37, 0, -6, -10, -6), 1, 4.615406633143825)
((-5, -6, -30, -12, -3, 2, 0, 8), 1, 4.637567288487076)
((34, 4, -13, -5, -4, -2, -5, -7), 1, 4.658821356015895)
((8, 11, 9, 0, 11, 8, 2, 4), 1, 4.684362044418242)
((12, -5, 3, -1, 1, 0, -3, -3), 1, 4.704916499841205)
((4, -6, 0, -8, -9, -8, -10, -7), 1, 4.724823799811726)
((4, -6, 0, -8, -9, -8, -10, -7), 1, 4.742578666449238)
((4, 6, 3, 5, -2, -3, -3, 1), 1, 4.765394459779146)
((-17, -16, 0, 2, 24, 3, -5, -4), 1, 4.792050422247551)
((33, 10, -4, -19, -19, -6, -1, -17), 1, 4.8126556237808815)
((4, -11, -15, -14, -12, -4, -4, 0), 1, 4.834520925358174)
((-9, 7, 0, 18, 16, 4, 9, 8), 1, 4.854814808057114)
((-11, -4, 2, -4, -9, -3, -1, 1), 1, 4.877089499603439)
((-14, -8, 3, 26, 15, 5, 0, 5), 1, 4.906507418910281)
((3, 12, 5, -7, -2, 5, 1, 0), 1, 4.928498730491969)
((32, 4, -7, -9, -21, -5, 0, 11), 1, 4.949531567786825)
((-35, -3, 0, -6, -11, -6, -6, -2), 1, 4.975907571376685)
((5, -2, 4, 5, 0, -3, -3, -2), 1, 5.005758258074191)
((6, 10, -1, 3, 1, -2, -1, 5), 1, 5.027399478512443)
((-4, -6, 0, 6, -9, 0, 3, -1), 1, 5.047234365494013)
((18, -13, -5, -3, 10, 0, -4, -7), 1, 5.068378958267881)
((-7, -3, -2, -10, -9, -3, -3, 0), 1, 5.092928101884505)
((-6, 1, -2, -2, 0, 2, 0, -2), 1, 5.114005983479576)
((1, 4, -4, 7, 5, 4, 16, 5), 1, 5.135769792836132)
((2, 3, 1, -20, -5, -1, 4, 1), 1, 5.155841875120094)
((-3, -3, -2, 0, -5, -1, -5, -4), 1, 5.175954440256148)
((-6, -4, 0, 9, 2, 0, 7, 0), 1, 5.205139155527705)
((0, -2, 3, 0, -1, 6, -1, 2), 1, 5.225147377537947)
((-2, -4, -7, 7, -1, -13, 5, -2), 1, 5.246018853605454)
((-1, -5, -16, -20, -2, 10, -1, -2), 1, 5.270506987853434)
((-2, 3, 6, 0, -2, -2, 0, -2), 1, 5.2936962497484075)
((1, -10, -25, -5, -6, -3, -4, -1), 1, 5.322592453426189)
((0, 2, -55, 8, 16, 8, 4, 0), 1, 5.345620924274829)
((0, 2, -55, 8, 16, 8, 4, 0), 1, 5.364802383812789)
((-1, 1, 19, -1, 0, -1, -5, -1), 1, 5.395035091790591)
((0, -6, 12, 23, -1, 3, -3, 2), 1, 5.422309130479653)
((1, -5, -19, -31, -8, -5, -4, 2), 1, 5.445538875226719)
((-1, -1, 17, -3, -2, -2, 0, -7), 1, 5.465229506411401)
((-3, -5, 99, 10, -3, -1, -6, -6), 1, 5.487576610946677)
((-4, -6, 9, 16, -5, -5, -2, 0), 1, 5.512305361583142)
((-10, 0, 5, 0, 0, 4, -2, -4), 1, 5.533183109641818)
((25, 9, -81, 5, 8, 11, 5, -6), 1, 5.554795821029302)
((-7, 7, 54, 22, 4, 0, -1, 9), 1, 5.5762420395603)
((3, -12, 9, -44, -11, -5, -1, 18), 1, 5.599730076307325)
((20, -22, 35, 1, -14, -15, -10, 43), 1, 5.622398762935269)
((18, 13, 48, 15, -2, 3, 6, 59), 2, 5.734512885805857)
((8, 15, -4, -12, 0, 4, 1, -18), 2, 5.758780930181905)
((39, 0, -5, -15, 0, 0, 0, 19), 2, 5.779313148545269)
((11, 17, 28, 8, 1, -1, 2, 13), 2, 5.808950017362012)
((2, 0, 14, -8, -2, -1, -1, 30), 2, 5.832076559345295)
((21, 1, 25, -4, -4, 1, -1, 35), 2, 5.854748096878316)
((-33, -3, -29, -15, -1, 0, -2, -22), 2, 5.8766892325306515)
((0, -7, -36, 2, -3, -5, 0, -15), 2, 5.897301846417182)
((5, -1, -25, -12, -2, -3, 0, 13), 2, 5.918823899023223)
((-1, -6, -38, -33, -4, -5, -2, -10), 2, 5.938366853324925)
((5, 3, 35, 21, 4, 5, 3, 1), 2, 5.9577353322359246)
((7, 1, 47, 15, 1, 0, 0, -3), 2, 5.978289787658888)
((5, 3, -15, -20, -1, 10, -2, 5), 2, 6.001092466825443)
((1, 1, 1, -8, -2, -5, -3, 0), 2, 6.024274886548232)
((1, 0, 6, -11, -7, -1, -1, 9), 2, 6.042810330995781)
((-5, -2, -22, 5, -2, -1, 0, -12), 2, 6.06714109528352)
((-1, 1, 39, -3, 4, 3, 0, 0), 2, 6.089158065010899)
((2, -13, -21, 15, -4, -6, -4, 30), 2, 6.111066700345359)
((-2, 1, 10, -4, 0, -1, 1, -9), 2, 6.13770954865041)
((-2, 5, 34, 0, 2, -3, -2, -10), 2, 6.157518207305273)
((-1, 1, 40, 27, -1, 0, -2, -5), 2, 6.176490410410593)
((2, -2, -21, -3, 0, 0, 1, -2), 2, 6.197357895210993)
((-5, 4, 27, 13, 1, -2, -1, -7), 2, 6.224011006774321)
((3, 0, 14, 15, 0, 1, 2, 2), 2, 6.245540471733562)
((1, 5, 15, 15, 1, -2, 1, 1), 2, 6.265581194061679)
((-1, -4, 13, 7, -2, -3, -1, -1), 2, 6.289324101722574)
((-1, -5, 17, 9, 3, 0, -1, -1), 2, 6.323832597134612)
((-1, 0, 27, 3, -13, -6, -1, 0), 2, 6.346728215806672)
((-5, -7, -9, 2, 1, 4, -2, -3), 2, 6.367719429887407)
((0, -2, -23, -6, 7, 2, 2, 0), 2, 6.38945644073624)
((2, -1, -7, -13, -5, 1, 0, -1), 2, 6.413986198198342)
((-1, -3, 4, 10, 0, 13, 3, 0), 2, 6.435641673161979)
((-1, 1, -1, 2, -2, 0, 0, 0), 2, 6.456733239101418)
((-1, 7, 9, 10, 1, -1, -2, 1), 2, 6.480323338250194)
((-3, 0, 25, -13, 3, 2, 1, 0), 2, 6.506281969336805)
((1, 3, 21, 4, 1, -5, -3, 0), 2, 6.5360311638135755)
((-8, -20, -10, 26, -13, -8, -3, -3), 2, 6.5570001408347105)
((8, -8, 24, 1, -3, -2, -3, 0), 2, 6.5784121485047855)
((-18, 5, -8, -4, 5, 2, -1, 2), 2, 6.603104977737282)
((16, 11, 16, -7, 0, 3, 2, 38), 2, 6.62916738176869)
((3, -16, -18, 3, -9, -11, -39, -1), 3, 6.71636858553485)
((61, 7, 11, 6, 1, -6, -4, 69), 3, 6.740108642290668)
((26, 6, -2, -8, -2, -6, -8, 2), 3, 6.760551342234619)
((-9, -7, 5, 9, -3, -6, 4, 27), 3, 6.78445846202794)
((6, -9, -9, -11, -11, -3, -23, -26), 3, 6.804277954122095)
((-14, -14, -9, -11, -13, -5, -3, -18), 3, 6.830594658886357)
((-4, -10, 34, -12, -3, -3, -3, -19), 3, 6.851093806750829)
((-3, -6, 15, 13, -5, 0, -1, 7), 3, 6.870860272010555)
((-36, -3, -28, -6, 5, 0, -1, 26), 3, 6.891091434797805)
((9, 6, -5, -10, 2, 2, 6, -19), 3, 6.909647975942923)
((9, 6, -5, -10, 2, 2, 6, -19), 3, 6.937216228035915)
((-1, -3, -37, 21, -1, -3, -6, 0), 3, 6.959414515326181)
((8, 5, 6, -11, 0, 2, 1, -2), 3, 6.980335597142025)
((9, 3, 7, -8, -5, -3, -5, 56), 3, 7.005297551813774)
((3, 1, -40, -9, -3, 1, 4, 0), 3, 7.030298848975584)
((2, 0, -18, 4, 0, -1, -3, -14), 3, 7.056678843832551)
((-2, -16, -19, -10, -13, -10, -6, 4), 3, 7.075826662690605)
((2, 3, 11, -7, 6, 3, 2, -10), 3, 7.095263563323448)
((-2, -5, -7, -6, -2, 1, -1, -14), 3, 7.118635283143339)
((4, -1, -12, 16, 5, 4, 2, -7), 3, 7.145603704808165)
((0, -3, 6, -4, -2, 0, 2, -2), 3, 7.166212897608604)
((-2, -1, 15, 4, 1, 2, 1, 0), 3, 7.188913514373408)
((-5, 0, 34, 6, 4, -3, 4, -21), 3, 7.211456761177971)
((1, 1, -7, 2, 9, 4, -1, -8), 3, 7.234834182808016)
((6, 3, 11, 4, 0, -1, -1, 12), 3, 7.2575558962703886)
((3, 9, 38, 32, 9, 2, -1, 5), 3, 7.276572003313892)
((2, 5, 25, 29, 0, -2, -1, 2), 3, 7.304811358461971)
((0, -1, -7, -3, 7, 1, 11, 6), 3, 7.340381530924622)
((-6, -6, -8, 6, -1, -2, -5, 5), 3, 7.362656792651963)
((0, -3, 12, -12, -8, -1, -6, 0), 3, 7.386864968021397)
((5, -1, 12, 10, -2, -2, -4, 24), 3, 7.408557504751033)
((-6, -16, -66, -43, -12, -5, -5, 3), 3, 7.435767683166375)
((2, 1, 8, 4, -1, -2, -1, 3), 3, 7.456824468063877)
((-7, -11, 3, -8, -7, -2, -2, -7), 3, 7.478862534488824)
((4, 6, 21, 8, -6, 6, 3, 10), 3, 7.5009587593773395)
((1, 2, 17, 19, 2, 6, 0, 1), 3, 7.521034262747395)
((5, -2, -1, 9, 3, 5, 0, 1), 3, 7.549668183158107)
((0, 4, 38, 17, 1, 0, -2, -4), 3, 7.570668520135087)
((-1, -3, 16, -24, 1, -1, 1, 3), 3, 7.591904341871414)
((-1, 2, -3, 8, 0, 0, -2, -3), 3, 7.611057862539621)
((0, -9, -22, -11, -7, 0, 8, -5), 3, 7.6310552511105705)
((-16, -27, -103, -56, -13, -8, -1, 2), 3, 7.656786950153065)
((16, 15, 29, 49, 9, 6, 6, 0), 3, 7.679439671712578)
((49, 16, 5, -18, 5, 2, 0, -7), 1, 7.912373441196377)
((-5, 7, -2, 60, 17, 14, 10, 5), 1, 7.935466342499754)
((24, 9, 11, -41, -15, -9, -1, 5), 1, 7.959735527237832)
((28, 10, -14, -1, -1, 1, 8, 2), 1, 7.980693670819675)
((-30, -7, -20, 9, 2, 4, 2, 0), 1, 8.000618076220658)
((-28, 0, 1, 4, 3, 0, -1, 0), 1, 8.020520244562041)
((-7, -10, 1, -26, -11, -5, -2, -4), 1, 8.04136207121675)
((-8, 5, 2, 2, -2, -3, -5, -6), 1, 8.071797763636022)
((-32, -7, -11, 5, 0, 3, -3, -12), 1, 8.091313349248987)
((-9, -19, 1, -1, -2, -1, -4, -9), 1, 8.227037527603889)
((14, 3, 0, -15, -3, 0, 0, -1), 1, 8.250922980518625)
((3, 5, -2, -3, -6, -2, -3, -1), 1, 8.276046866598739)
((27, 4, 13, -8, 3, 4, 2, 1), 1, 8.705133168627045)
((-12, -1, -7, 4, -1, -2, -1, -2), 1, 8.723344750257864)
((0, 1, -6, -20, -3, 0, -2, 2), 1, 8.743141435111404)
((-16, 2, 0, -19, -7, 1, 0, -3), 1, 8.762486536600775)
((-11, -4, -5, -22, -9, -5, -1, 2), 1, 8.788926400464355)
((15, 2, -5, -18, -10, -3, -3, 0), 1, 8.807072411278408)
((30, 2, -6, -5, -5, -2, -2, -2), 1, 8.826647295716972)
((-2, 1, 1, 6, 16, 5, 3, 2), 1, 8.848537115077924)
((2, 2, -3, 8, 1, 2, 0, -1), 1, 8.867337693697618)
((23, 9, 3, 0, -3, -3, -4, -3), 1, 8.890686036095879)
((27, 6, -1, -1, 2, 2, 1, -1), 1, 8.910269473249672)
((-6, -11, 6, -9, 0, 0, -3, -4), 1, 8.93351119179806)
((5, 6, 1, -3, 8, 4, 3, 4), 1, 8.954373544969322)
((-19, 1, 10, -4, 1, -2, 0, 0), 1, 8.98133056301384)
((13, 1, 10, -13, 0, 0, 0, 1), 1, 9.00398613547843)
((18, 5, 0, 4, 4, 3, 0, 2), 1, 9.024319930848446)
((8, -4, -3, -13, -8, -2, -3, -2), 1, 9.050294527003487)
((4, 3, -25, 1, -8, -7, -1, -1), 1, 9.07363146578144)
((19, -16, 5, -9, -4, -3, -5, -4), 1, 9.100192778201295)
((-17, -3, 4, -3, 1, 7, 3, -1), 1, 9.120350957818578)
((10, -8, 2, 1, -2, 0, 0, 2), 1, 9.140758306539578)
((-12, -3, 7, 15, 4, 1, 0, 2), 1, 9.1604095952342)
((13, -2, -5, 0, -4, -2, 0, -2), 1, 9.192277582364072)
((5, 5, 26, -2, -2, 3, 0, 1), 1, 9.211813124312576)
((8, -11, -14, -2, -13, -3, -3, -1), 1, 9.232640126260884)
((8, 3, -7, -26, -15, -20, -11, -5), 1, 9.253245327794215)
((0, -6, -2, 5, 1, 11, 1, -1), 1, 9.273395524877282)
((-2, 11, -3, 17, 8, 2, 1, 3), 1, 9.30052986921758)
((-1, 4, 32, 23, 4, 4, 2, 2), 1, 9.33075174375609)
((-5, -4, 18, -7, -6, -6, 1, -2), 1, 9.351063872247522)
((0, 2, 29, -36, 0, 0, 0, -1), 1, 9.372758119520205)
((0, -5, 84, 24, -1, -3, 0, -1), 1, 9.398864427489794)
((0, -1, 2, 13, 0, -1, -2, 10), 1, 9.420230250497626)
((2, 2, -10, 23, 5, 2, 0, -3), 1, 9.439636361355639)
((-1, 4, 38, 18, 2, 1, 0, -1), 1, 9.459874366315074)
((-32, 3, 64, 9, 4, -1, 0, -3), 1, 9.486404318779083)
((-30, -5, -8, -5, -4, -4, -4, -32), 1, 9.508418437601385)
((19, 13, -28, 26, 12, 6, 6, -33), 1, 9.531498794922424)
((7, 7, 16, 5, -1, -2, 2, 66), 1, 9.555216614618644)
((25, 18, 26, 50, 0, -11, -5, -84), 1, 9.574158598130149)
((-22, -30, -128, -42, -18, 14, -2, -29), 2, 9.638190496336872)
((-8, -6, -45, -8, -2, -9, -12, -17), 2, 9.661310196147971)
((-9, -27, 64, -4, -18, -15, -18, 3), 2, 9.68426112237852)
((-11, -4, -76, -17, -2, -4, -3, -11), 2, 9.707484024953402)
((1, 5, -24, 0, 3, 0, -1, 3), 2, 9.727497948773797)
((11, 14, 6, 12, 4, 4, 6, 26), 2, 9.74864083100462)
((8, -2, 4, 17, 0, 3, 4, 32), 2, 9.775201003062442)
((7, -3, 7, -11, -1, 5, 4, 3), 2, 9.800435504259537)
((0, -14, -42, -22, -5, -4, -3, -4), 2, 9.82311046287865)
((5, -2, 6, 7, 4, 1, 1, -1), 2, 9.849567432172693)
((29, 16, 73, 17, 6, 1, 1, 16), 2, 9.880942212724273)
((23, 9, -3, 15, 1, 1, 0, 22), 2, 9.913232703986534)
((9, -3, 3, -1, 0, -3, -1, -2), 2, 9.937142674684932)
((-7, -7, -21, -7, -4, -3, -2, -16), 2, 9.962471255749563)
((-4, 2, 10, -17, 2, 2, 1, 10), 2, 9.985981529556188)
((9, 4, 17, 11, 0, -1, 0, 42), 2, 10.016259852015219)
((-5, -2, 19, -13, -4, -5, -2, 0), 2, 10.040353991181581)
((0, 1, 14, -9, 3, 2, 2, -9), 2, 10.066785872510946)
((-2, 0, -5, 7, 2, 4, 3, -4), 2, 10.092409807341538)
((-3, 1, 10, 13, 0, -2, 0, 26), 2, 10.12401437084231)
((-3, 6, 24, -1, 5, 4, 0, -22), 2, 10.147963684030769)
((-17, -11, -87, -21, -4, -1, -4, -16), 2, 10.182912929367687)
((3, -4, 23, 11, -1, -1, -1, 4), 2, 10.223251525661851)
((-8, -19, -96, -79, -11, -1, -1, -4), 2, 10.249497527980209)
((0, 1, 11, 33, 6, 2, 0, 2), 2, 10.27363329036069)
((0, 3, 15, 17, 3, 4, 3, 1), 2, 10.321166430706757)
((0, -1, 32, 12, 1, 1, 1, -2), 2, 10.356274186365946)
((1, 0, 5, 5, 0, -5, 0, -5), 2, 10.383797394158723)
((-6, -13, -77, -49, -10, 0, -1, -2), 2, 10.410716780256228)
((0, 2, 24, 10, 1, -1, -3, -1), 2, 10.439281708764081)
((1, 1, 12, -7, -7, -4, 1, 3), 2, 10.469794375620427)
((-6, -6, 26, 7, -9, -1, -2, -3), 2, 10.498071932896536)
((-4, -1, 17, 16, -8, -2, -3, -1), 2, 10.524053371223763)
((-2, -5, 13, 3, 1, 2, 0, -3), 2, 10.541544814232175)
((-4, -15, -42, -6, -17, -9, -3, -2), 2, 10.570695318642809)
((1, 2, -9, 9, 11, 4, 0, 1), 2, 10.592941501138366)
((-16, -2, -40, 4, -1, -4, -13, -29), 2, 10.624215929831244)
((15, -3, -15, 17, 0, 1, 30, 89), 2, 10.648177216821024)
((16, 8, 19, 6, 6, 7, 6, -31), 2, 10.674306902212246)
((-6, -18, 1, -22, -17, -9, -3, 8), 2, 10.7015843619874)
((7, 13, -1, -9, -5, -16, -11, 48), 3, 10.752997013962023)
((13, -5, 1, -16, 0, -6, 13, -11), 3, 10.779902145534143)
((2, -5, 10, -3, -5, 1, -4, 1), 3, 10.97803719746908)
((-1, 8, 19, 1, 6, 0, 4, -8), 3, 11.001078782481073)
((-3, 7, 30, 2, 1, 3, 11, 18), 3, 11.028506199863271)
((-3, -3, 21, 3, -1, -5, -9, -7), 3, 11.054294917007303)
((-1, -5, 7, -20, -5, 2, 9, 21), 3, 11.079175335793854)
((-2, -4, -12, -2, 2, 5, 11, -4), 3, 11.103135482421605)
((-2, 0, -10, -11, -2, 0, 32, -9), 3, 11.133797536703977)
((-3, -21, -61, -22, -18, -3, -21, -2), 3, 11.155218097089284)
((6, 13, 69, 33, 6, 4, -9, -5), 3, 11.18111457844522)
((-3, -7, -28, -9, -2, -1, -8, -16), 3, 11.209718849443133)
((2, -1, 8, 32, 5, -1, 8, 27), 3, 11.234139132150284)
((1, 9, 24, 11, 7, 5, 12, 7), 3, 11.262765640207796)
((-2, -9, 34, 3, 1, -5, -2, -3), 3, 11.28618525523298)
((-3, -2, 20, 5, 1, -2, -1, -10), 3, 11.319909181567873)
((-2, 2, 0, -8, -3, -5, 1, 3), 3, 11.353158147116964)
((-2, -2, -13, 7, 0, 1, -3, 1), 3, 11.378164005726898)
((-2, -11, -58, -18, -6, -1, 7, 8), 3, 11.401495812875714)
((-2, -1, -6, -2, 3, 5, 6, 7), 3, 11.425641838514473)
((-3, -1, -8, -4, 0, 1, 8, -19), 3, 11.454710236858896)
((3, 4, -3, 3, 2, 1, -7, 7), 3, 11.483166830973829)
((-1, -3, 10, -27, -9, -1, -11, -4), 3, 11.506254030467053)
((1, 6, 5, -21, -4, 1, 11, 9), 3, 11.53628774527049)
((-8, -17, -12, 5, -11, -8, -3, -23), 3, 11.562364403827283)
((-1, -1, -9, 6, 1, 2, -6, -10), 3, 11.586747624768435)
((-1, -2, 16, 0, -4, -1, -3, 3), 3, 11.607789014778522)
((0, -4, 3, -14, 2, 1, -3, -4), 3, 11.638107820089644)
((-1, -4, -4, 0, -7, -3, -6, -5), 3, 11.665181725242313)
((0, 4, 1, 11, -2, 2, 10, 5), 3, 11.688311688311689)
((0, 4, 9, 11, 2, 4, 1, -4), 3, 11.714077598215106)
((-3, -3, -13, -3, 0, 1, 4, -1), 3, 11.739448372674874)
((3, 5, 15, -1, 5, 3, 1, 0), 3, 11.769252304529118)
((3, 1, -5, -2, -4, -2, 1, 2), 3, 11.799946859129367)
((1, 3, 36, -4, -1, -2, -2, 0), 3, 11.82334423709495)
((-3, 4, 5, -2, -2, -3, -5, -6), 3, 11.8567807921981)
((-18, -14, -41, -17, -10, -3, -3, -5), 3, 11.879533295435301)
((9, 9, 87, 18, 5, 6, 11, 16), 3, 11.96349815175824)
((-40, 0, -43, -25, -7, -3, -3, 13), 3, 11.986926319498652)
((-46, 55, -2, 3, -4, -7, -5, -22), 3, 12.00535970154445)
((-23, -34, 4, -22, -17, -7, -13, -25), 3, 12.02665653264942)
((16, 12, -6, 1, -11, -12, -13, -3), 1, 12.069694365870333)
((10, -10, -7, -1, 1, 1, 0, 1), 1, 12.091726160304113)
((43, 6, -11, -5, 1, -3, -7, -12), 1, 12.11223443106483)
((-13, 7, 0, -25, -4, 1, 1, 0), 1, 12.134229733913626)
((-10, -6, -20, -14, -15, -6, -6, -2), 1, 12.154968357804552)
((-17, -8, 7, -10, -4, -1, -14, -3), 1, 12.176240671125862)
((6, -2, 3, -4, 0, -1, -2, 0), 1, 13.525949793280873)
((13, 1, -1, -2, -1, 0, 0, -3), 1, 13.547093815873726)
((14, -5, -1, 4, 0, -1, 0, 2), 1, 13.574944307569323)
((6, -2, -1, -3, -4, -2, -1, -1), 1, 13.598833181570154)
((5, 1, 1, -2, -6, -1, 0, -1), 1, 13.666189805277481)
((5, -2, -1, -8, -4, -2, -2, -1), 1, 13.690066135295972)
((-1, -2, -1, 1, 1, 0, 0, -2), 1, 13.711733584060932)
((0, 1, 1, 2, 5, 0, -1, -1), 1, 13.732106151739993)
((1, 0, 0, -3, -4, -4, 0, -1), 1, 13.752158277688418)
((8, 0, 0, 2, 1, -1, -1, -2), 1, 13.773618750744799)
((28, 3, 5, 3, 2, 0, 1, 0), 1, 13.796111251438994)
((2, -10, -1, -2, -8, 0, 0, -1), 1, 13.815187797670127)
((-4, 1, 0, 0, -1, -3, -1, -1), 1, 13.835315757693595)
((-26, -2, 3, 7, 3, 0, 1, 1), 1, 13.857969619615139)
((16, 3, -3, -8, -10, -4, -2, 1), 1, 13.879713472636158)
((11, -1, 0, -3, 3, 1, -2, -1), 1, 13.91322472145232)
((-36, 2, 0, 0, -2, 0, 1, 4), 1, 13.935838670702788)
((-10, -2, -1, -5, -4, -2, 0, 0), 1, 13.961792740341275)
((32, 3, -3, 0, -6, -2, -2, -1), 1, 13.98283070926527)
((-11, 0, -2, -1, 5, 0, 3, -1), 1, 14.012537140165888)
((12, -2, -4, -2, -5, -2, -2, -3), 1, 14.03352607352256)
((8, 0, 0, -15, -8, -2, -1, 0), 1, 14.054817772998394)
((-1, 0, 0, -4, -1, -3, -2, -1), 1, 14.077718523299591)
((-7, -4, -2, -2, -4, 1, 1, 0), 1, 14.100437385856887)
((0, -2, -1, -5, -4, -2, -1, 1), 1, 14.123863843054254)
((-3, -5, 0, -4, -1, -2, 0, 0), 1, 14.143256839748915)
((9, -3, -2, -2, -4, 0, 0, 0), 1, 14.162028909317842)
((8, 1, -2, -2, 0, -1, -2, -1), 1, 14.183768771071753)
((11, 4, 0, 5, 6, 1, -1, -1), 1, 14.211480138599601)
((8, -8, -2, -1, -6, -6, -2, -2), 1, 14.232160033845945)
((3, 1, 0, 2, 3, -1, -3, -1), 1, 14.251385967503102)
((4, -2, 0, -3, -1, 0, -1, -1), 1, 14.272780869742718)
((11, 0, -2, -2, -4, -1, -1, 1), 1, 14.296266055584667)
((1, -6, -1, 3, 1, 0, 1, -1), 1, 14.327494869796315)
((5, 2, -4, -2, -6, -3, -9, -57), 1, 14.351833616618269)
((28, 4, 1, 2, -2, -2, 0, 21), 1, 14.37597565098992)
((11, 4, -1, 4, 8, 4, 1, 9), 1, 14.398760654544999)
((-14, 1, 0, -1, 3, -1, -3, -1), 1, 14.424252307380025)
((-1, -6, 0, 2, -5, -3, 0, -2), 1, 14.447884029742923)
((-20, -3, 1, -5, -6, -1, 0, -1), 1, 14.467196060733402)
((-9, -6, 0, 1, 0, -1, 0, 2), 1, 14.488192406443273)
((-2, 1, 0, 7, -5, -1, 0, 1), 1, 14.515604428938055)
((-2, -1, 0, -3, -4, -2, 2, 0), 1, 14.536313973597197)
((-6, -5, -2, 1, 0, -1, -1, 1), 1, 14.55922270643261)
((18, 0, 0, 2, 4, -1, 0, 3), 1, 14.580512695365398)
((-23, 0, 1, 6, 8, 1, -1, 2), 1, 14.601786719229754)
((-13, -1, 0, -3, 0, -1, -1, -2), 1, 14.62481690062144)
((2, 1, 1, 1, 3, 1, 1, 0), 1, 14.647859055814449)
((-5, -3, -1, -2, -8, 0, 0, -2), 1, 14.671582007139806)
((-6, -7, -2, -4, -10, -2, -2, 0), 1, 14.69372897813869)
((16, 1, -3, -4, -5, -3, -3, -1), 1, 14.717708510920962)
((18, 1, -2, -6, -10, -4, -3, 1), 1, 14.74259691224173)
((-5, 2, 0, 3, 4, -5, -3, 1), 1, 14.763872076468116)
((34, -2, 1, 9, 11, 2, 1, 3), 1, 14.79002114801386)
((-4, 1, -2, -9, -5, -1, -1, 1), 1, 14.81398870699481)
((-20, -5, -1, 3, -1, -5, -1, -1), 1, 14.833231175901414)
((8, 2, 1, 9, 8, 2, 2, 2), 1, 14.85609657497966)
((-16, -2, -5, 10, -5, -5, -2, -4), 1, 14.876117911153253)
((1, 1, 1, -16, -8, -3, -1, 0), 1, 14.897367987414965)
((24, 5, 1, -5, 0, -2, -3, 1), 1, 14.925100451640382)
((3, -1, 2, 4, 0, 0, 1, 0), 1, 14.94880116590614)
((28, 3, 0, 1, 1, 1, -1, 1), 1, 14.968145127033479)
((4, 0, -1, -3, -3, 0, 2, -2), 1, 14.990308063100793)
((4, 0, -1, -3, -3, 0, 2, -2), 1, 15.010225626329591)
((2, 5, 0, -9, 0, 7, 0, -1), 1, 15.038049889698483)
((8, 4, 1, 2, 6, -2, -1, 3), 1, 15.059412291620221)
((-2, -2, -1, 2, 1, -7, -2, 1), 1, 15.082131154177517)
((-6, -7, 0, -4, -2, 2, 1, -5), 1, 15.108041319877822)
((-2, 0, 0, 7, 2, -1, 0, 0), 1, 15.13250379598011)
((0, -1, 1, 3, 0, -1, 0, 0), 1, 15.156165167755807)
((-6, -7, -3, 0, -2, -2, 2, -1), 1, 15.174801534243077)
((21, 6, 0, -6, -3, -8, -3, -1), 1, 15.199364362204069)
((-2, -2, 1, 3, 7, 5, 3, -2), 1, 15.228176179091577)
((6, -1, -2, -3, -7, -4, -2, -1), 1, 15.248547606408607)
((-25, -1, -3, -4, -2, 11, 2, -3), 1, 15.26955250483371)
((9, 0, -2, -1, 1, 5, 0, -1), 1, 15.292549045545488)
((-3, 4, 0, -2, 3, -4, -1, 0), 1, 15.31462987554659)
((8, -1, 3, 8, 3, 1, -2, 2), 1, 15.34401472435454)
((11, -2, -1, 2, 1, 2, -4, 0), 1, 15.368298163618004)
((-24, 1, 2, 0, -2, -1, -2, -2), 1, 15.388619985186697)
((2, 5, -2, -2, -7, -3, 0, -2), 1, 15.414613397315245)
((21, -4, 0, 0, 4, 0, -3, 1), 1, 15.440540668446012)
((5, -2, 18, 7, 4, 0, -1, 0), 1, 15.464728887479907)
((5, 0, -2, 2, 4, -2, 0, -1), 1, 15.48624238737072)
((-3, 0, -7, 11, 12, 0, -2, 0), 1, 15.508672168153224)
((0, -1, 29, -9, -8, -4, 2, -1), 1, 15.53506698771659)
((-26, -2, 14, 33, 7, 2, 6, -9), 1, 15.560063153249262)
((13, -16, -96, -24, -14, -20, -10, 78), 1, 15.58380435036711)
((23, 3, -9, 2, 0, -2, 3, -27), 1, 15.609773814893014)
((-4, -9, 12, 8, 0, 5, 1, 15), 1, 15.637778255462761)
((2, 1, -24, -24, 3, 0, -1, -29), 1, 15.66252240098664)
((18, 17, 1, 7, 6, 7, 9, -6), 1, 15.683519887058544)
((-6, 10, 94, 22, 1, -33, -5, -38), 2, 15.761386087241116)
((15, 9, 51, 15, 0, -13, 1, 8), 2, 15.784360961074313)
((13, 0, 4, 2, 10, 47, 25, 35), 2, 15.805620730413285)
((9, -4, -18, -5, 0, -7, -1, 16), 2, 15.827007650118682)
((-3, 5, 31, -3, -1, 3, 2, -8), 2, 15.856005916198216)
((4, -7, -11, -13, -7, -5, -5, 3), 2, 15.877574723647516)
((-34, -23, -45, -47, -12, -9, -17, -57), 2, 15.897680446611385)
((19, 3, 43, -7, -3, -4, 0, 9), 2, 15.922734200426609)
((-2, 5, 18, 29, 5, 0, 3, 0), 2, 15.94598903313835)
((15, -1, 4, 27, -1, 6, 6, 25), 2, 15.974007728233483)
((-9, -18, -90, -38, -12, -9, -5, 1), 2, 15.995026311002954)
((0, 4, 10, 2, 13, 5, 2, -10), 2, 16.019061151343717)
((11, 2, 6, -6, -8, -11, -2, 29), 2, 16.04328301105752)
((-16, -6, 8, -6, -2, 4, 2, -4), 2, 16.06525208557961)
((-8, -12, -90, -36, 2, 4, 6, -5), 2, 16.093902541239768)
((0, -4, 6, -7, -6, -2, 0, -4), 2, 16.11448664607553)
((-4, -7, -1, -5, -6, -1, -3, -8), 2, 16.13800832350246)
((10, 12, -7, 8, 3, -1, -2, -1), 2, 16.161535132558534)
((2, -10, -89, -34, 5, 3, 3, 11), 2, 16.18117387727082)
((-6, 1, 29, 16, -2, -1, -1, -9), 2, 16.202389742671606)
((0, 0, 32, 3, -9, -5, -1, 8), 2, 16.221990855436875)
((3, -1, -85, -28, 4, 1, 0, -3), 2, 16.246182495556866)
((0, 2, -4, -2, -1, 3, 0, 1), 2, 16.268494819050204)
((3, 6, -2, 23, 11, 13, 5, 2), 2, 16.28991994088363)
((-8, -14, -8, -5, -10, -7, -4, -7), 2, 16.310899181163045)
((2, 3, 29, 23, -1, -4, -5, -1), 2, 16.343166295003673)
((-2, 6, 22, 20, 4, 9, 8, -1), 2, 16.370817223343895)
((1, 7, 10, 3, 13, 2, -1, 3), 2, 16.392608971570205)
((-1, -7, -9, 8, -2, -5, -4, -1), 2, 16.413355577995347)
((-3, -2, 24, 15, 0, -1, 1, -1), 2, 16.440549791342256)
((0, -1, 2, -8, -3, -5, -6, 1), 2, 16.465169637404788)
((1, 2, 8, -7, 1, 1, 3, 1), 2, 16.494238605930224)
((3, 0, 8, 2, 8, 9, 0, 0), 2, 16.51477538574171)
((-1, 0, -3, -2, -7, -10, -4, -1), 2, 16.54137832137569)
((-3, -3, -3, 19, -9, 0, 4, -1), 2, 16.56712256440052)
((-1, 0, -22, -12, -8, -4, -5, -1), 2, 16.59219399382722)
((4, 7, 8, 2, 25, 1, 0, 2), 2, 16.613735432587784)
((-2, 3, -4, 24, 4, 4, -3, -3), 2, 16.636205126041364)
((-12, -7, 3, -5, 9, -3, -4, -2), 2, 16.661778884942603)
((-50, -4, -8, -25, 7, 2, 2, 12), 2, 16.680823501036873)
((26, -11, 14, 13, -14, 1, 5, 13), 2, 16.70155756347968)
((62, 7, -22, -7, 6, -1, -15, -51), 2, 16.72149052159589)
((-11, -4, -8, 14, -7, 5, 23, 16), 2, 16.74187791398135)
((-2, 4, 27, -2, 11, 4, -25, 33), 2, 16.77299212180891)
((9, 19, 10, -39, 3, -9, -10, -16), 3, 16.844020141074186)
((10, 11, -37, 2, 7, 17, 19, -16), 3, 16.87506478681787)
((-1, 5, 0, -3, 0, 2, 0, -2), 3, 18.760060986561403)
((0, 4, 1, 7, 9, 3, -3, -1), 3, 18.78697980247789)
((-2, 0, 1, 1, -1, 2, 1, -2), 3, 18.816392019974582)
((24, 19, 28, 6, -4, -7, -4, -2), 3, 19.00629365804762)
((3, 2, 11, 13, 9, -2, 1, 4), 2, 19.725055293303964)
((1, 1, -13, 3, 3, 2, 2, -1), 2, 20.456712712584864)
((1, 6, 0, 4, 0, -4, -1, -2), 3, 20.48194436287688)
((-1, -5, 3, 0, -1, 4, 2, -3), 3, 20.503903174140696)
((-4, -4, -9, -12, -9, -3, -3, -6), 3, 20.524368111144245)
((0, 7, 15, 1, 11, 0, -2, -1), 3, 20.554061998062526)
((0, 3, 7, -1, -1, -4, -2, 1), 3, 20.5766873509333)
((0, -1, 5, 2, 16, 3, -2, -1), 3, 20.600741577428586)
((-3, -5, -5, -6, -5, -4, -3, -1), 3, 20.6223554291781)
((2, 9, 7, 12, 3, -4, -5, 1), 3, 20.64561539351898)
((1, 9, -23, -5, 6, 4, 2, 1), 3, 20.67304338108219)
((-1, -2, 4, -2, 4, -4, -4, -2), 3, 20.695863735860225)
((-1, 5, 1, -2, 1, -5, -6, -1), 3, 20.71610915317286)
((2, -12, -3, -4, -1, -3, 0, 2), 3, 20.742681299032004)
((-2, 6, 10, -12, 5, -4, -5, -3), 3, 20.7673222417921)
((3, 3, -2, 16, 7, 6, 9, 4), 3, 20.790365537347142)
((22, 7, 5, -8, -1, 3, 4, 9), 3, 20.813482386253163)
((-4, -3, 24, 38, 5, -13, 17, -6), 3, 20.835286678461813)
((63, 120, -8, 0, 8, 3, 15, 71), 1, 20.909744906715535)
((31, 9, -2, -3, -10, 4, 11, -9), 1, 20.934325410288004)
((97, 31, 8, -16, -2, 6, 7, 15), 1, 20.961982610619394)
((31, 14, 2, 17, -13, -3, -4, 10), 1, 20.98450818181248)
((18, 56, -9, 12, 4, 2, 10, -5), 1, 21.006828487840036)
((-17, -10, 3, -7, -10, 12, 9, -6), 1, 21.0280397917927)
((-15, 26, 11, 8, 5, -6, 2, 13), 1, 21.052102571003218)
((-4, 0, -4, -11, -1, -3, -5, -10), 1, 21.074016337966814)
((-41, -17, -7, -6, -7, -3, -4, -17), 1, 21.09613080864782)
((5, -12, -4, 9, -1, -3, -4, 9), 1, 21.11890269803955)
((-55, 16, 3, 2, 3, -1, -4, -3), 1, 21.13959342672518)
((-4, 2, -1, 10, 9, 0, -4, -21), 1, 21.165431179436535)
((14, 6, 3, 2, -2, -3, -3, 3), 1, 21.191703410081598)
((-22, -8, -1, -4, -2, 0, -6, -11), 1, 21.215011839808785)
((-23, -11, 0, -3, 0, 1, -10, -27), 1, 21.237852150922354)
((1, -5, 1, 17, 4, 3, -3, 4), 1, 21.26466434298897)
((18, 20, 3, -4, -2, -4, -6, -4), 1, 21.288885062340743)
((-18, -17, -2, 0, 3, -1, -7, -2), 1, 21.319592160923328)
((9, -4, 0, -5, 3, 0, -2, -8), 1, 21.34998737049051)
((-38, 1, 1, 6, 5, 1, 3, 12), 1, 21.37863668578864)
((-2, 21, -2, -8, -3, 0, 6, 0), 1, 21.400374836999504)
((-13, 10, -2, -12, -3, 0, -4, -2), 1, 21.421575307512875)
((-4, -1, -3, 32, 1, 5, 16, -2), 1, 21.44172721513899)
((23, 15, 2, -26, -7, -4, -3, -10), 1, 21.466234165360476)
((15, -10, -1, 4, -2, 1, -2, 0), 1, 21.490373348827053)
((-7, 9, 1, -11, -1, 1, 2, -7), 1, 21.513126992426287)
((-26, -6, -1, 4, 5, -2, 1, -13), 1, 21.53537488546489)
((-5, -3, 0, 4, 1, 1, -4, -43), 1, 21.55593960414613)
((9, -11, -1, 0, -1, 0, 3, 20), 1, 21.580262956080666)
((12, 3, -3, -8, -6, -1, -4, -9), 1, 21.607002735158332)
((-30, 1, 0, 4, 3, 2, 2, -6), 2, 21.624816330440424)
((-8, 2, 0, -8, -4, 2, -2, -7), 1, 21.64844634226028)
((5, 4, -1, 7, -5, -6, -7, -7), 2, 21.6694073367472)
((-4, 1, -52, -17, -8, -8, 0, -2), 1, 21.841316342699315)
((-7, -9, 72, 14, 10, -4, 15, -38), 1, 21.867051462827902)
((-3, 8, -1, -5, 2, 2, 9, -18), 1, 21.888848342683353)
((2, 7, 91, 28, -9, -5, -10, 21), 1, 21.910833952454887)
((16, -7, 36, -39, 13, 5, -2, 10), 1, 21.93203556333029)
((7, -43, -23, -50, -8, 0, 1, 8), 2, 22.02207455800993)
((-14, -15, -25, -17, -3, -2, -5, -50), 2, 22.046281593017333)
((-24, 12, -14, -3, -5, -3, -12, 1), 2, 22.067849260104605)
((-7, -11, 30, 37, -3, -3, -1, -16), 2, 22.09724722307591)
((2, -10, -93, -36, -5, -9, 7, 1), 2, 22.118325674851995)
((10, 0, 8, 8, 1, 9, -7, 10), 2, 22.144843083333665)
((-7, 2, 12, 0, -3, 1, -7, -3), 2, 22.167453611498043)
((4, -5, -36, -16, -1, -4, -10, 3), 2, 22.188546317799513)
((1, -3, -37, 4, -4, 1, -4, 0), 2, 22.21726804608659)
((-6, -11, 17, -16, 1, 2, -2, -29), 2, 22.23761381525793)
((16, -1, -35, 10, -1, -1, -1, 0), 2, 22.258969375007485)
((-7, -9, -8, -19, -2, -1, 0, -2), 2, 22.2832362790215)
((6, 2, -5, 10, 3, 3, 5, -6), 2, 22.311479625436686)
((0, 0, 9, 4, 4, 2, -1, -6), 2, 22.338040367675525)
((-3, -4, 17, -5, -1, 0, -1, 2), 2, 22.356680725429904)
((1, 1, 33, 64, 3, 4, 1, 2), 2, 22.377913696261153)
((-6, -5, 11, -8, -3, 0, -1, -14), 2, 22.401541427356943)
((-8, -17, -23, -34, -9, -5, -3, -9), 2, 22.42250983419706)
((-2, -1, -11, -9, -4, -3, 2, 0), 2, 22.443717717063635)
((0, -5, -2, -3, -1, 4, 0, 0), 2, 22.466762152980706)
((1, 2, 36, 9, -1, -4, -4, 0), 2, 22.492395780888558)
((3, 4, 38, 33, 6, 1, -2, -1), 2, 22.518778056469586)
((0, -2, 5, 3, 2, 2, 0, 1), 2, 22.54407185649228)
((2, 5, -7, 2, -1, -2, 0, 0), 2, 22.565284300806976)
((-2, -4, -4, -9, 2, 1, -2, -1), 2, 22.5876405282385)
((-2, -11, -40, -36, -12, -3, -3, -1), 2, 22.619701806732582)
((1, 0, -20, -1, 0, 3, 3, 1), 2, 22.643604935258796)
((-5, -4, 3, -2, -1, 2, -2, -3), 2, 22.66665165189993)
((-1, 2, 6, 0, 3, 4, 15, -4), 2, 22.68703049157016)
((-1, -2, 29, -28, -1, -3, -4, 1), 2, 22.713922508978925)
((-4, -4, -10, -8, -17, -14, -7, -2), 2, 22.73535561334657)
((-6, -15, -69, 8, -6, -1, -2, -4), 2, 22.754734925696862)
((-3, 0, 12, -17, 4, 6, 4, -2), 2, 22.77682487859421)
((1, -9, -11, 6, 2, -15, 25, -2), 2, 22.79954659205658)
((-1, -9, -6, 8, 4, 2, -2, 1), 2, 22.822640063540973)
((-3, 4, 4, 8, 8, -2, -5, 0), 2, 22.844177511034427)
((16, 5, 9, 6, -8, 4, 3, 3), 2, 22.86405915285926)
((3, -4, 15, 13, 2, 0, -2, 2), 2, 22.885958095116457)
((-74, -32, -14, -34, -13, -4, -6, -40), 2, 22.915088073010537)
((39, 56, 7, 13, 8, 11, 14, 60), 2, 22.93616823532967)
((-8, 17, 12, 6, -1, -2, -24, -42), 2, 22.962098927546528)
((23, -7, -29, -9, -1, -4, -16, 82), 3, 23.034102526529097)
((-3, 22, 33, 12, 4, 23, 29, 4), 3, 23.055995196795127)
((-4, 0, -4, -13, 2, 4, 22, -7), 3, 23.07942678562163)
((-5, -7, 0, -5, 1, -8, -8, 13), 3, 23.102600082448173)
((1, -1, 0, 5, 4, 1, 0, -1), 3, 25.96256362507405)
((-1, -3, -1, -7, -12, -2, 0, -1), 3, 25.98618565435969)
((0, -12, -3, -1, -15, -2, -1, -2), 3, 26.007301738082788)
((0, -2, 1, -10, -6, -5, -1, -2), 3, 26.027614436755236)
((1, -7, 0, -2, -2, -2, -1, 0), 3, 26.047793142889073)
((21, 12, -1, 0, 1, 0, 3, -1), 1, 28.97622459202123)
((13, -2, -4, -2, -2, -6, -4, -6), 1, 28.998366431390973)
((13, 0, -6, -2, 0, 2, -3, -1), 1, 29.017737191026036)
((41, 18, 5, 2, -1, 6, 5, 14), 1, 29.040091137733498)
((7, 0, 5, 1, 1, -3, -1, 2), 1, 29.062483286568987)
((11, 2, -2, -6, 1, 7, 7, 4), 1, 29.08473117960759)
((18, 8, -1, 0, -1, -8, -3, -1), 1, 29.106553147427714)
((60, 8, 2, -2, -2, 3, 1, 7), 1, 29.127238174303194)
((34, 2, -1, -3, -5, -5, -3, -1), 1, 29.154083436868703)
((11, -1, 4, 3, 2, 7, 4, 0), 1, 29.173418275099795)
((-2, -19, -1, 0, -1, -7, -11, -10), 1, 29.198622556703075)
((-91, -32, 3, 4, 3, -1, -1, -4), 1, 29.221110495949148)
((18, 4, -1, 2, 4, -1, 2, 2), 1, 29.24468919147762)
((3, -3, 0, -2, 2, -3, -4, 0), 1, 29.274622554422354)
((-21, -10, 0, -2, -2, 1, 3, -5), 1, 29.299385515919738)
((22, 6, -2, 2, -3, -3, 4, 2), 1, 29.3309820968863)
((3, -10, -4, -5, -4, -8, -3, -1), 1, 29.730509644896966)
((-9, 1, -1, -4, -1, -5, -4, -4), 1, 29.754115709114174)
((15, 2, -2, 1, 7, 3, 0, 2), 1, 29.7851546530477)
((-4, -5, -2, 1, 2, -4, -3, -2), 1, 29.808996202024257)
((-2, 4, -1, 2, 3, 3, 0, -1), 1, 29.834828252925455)
((2, -1, -1, -3, -1, 0, -1, 0), 1, 30.03790848480667)
((-2, 2, 0, -4, -2, -3, -4, -2), 1, 30.05792582971316)
((-1, 3, -2, 0, -2, -3, 1, 3), 1, 30.084497975572305)
((-5, 0, -1, -2, -1, -1, -2, -3), 1, 30.10756293800593)
((-32, -6, -1, -2, 3, -1, 0, -1), 1, 30.127343087610022)
((3, -3, -1, 4, -2, 3, 0, -2), 1, 30.151107091968488)
((-67, 10, 2, -2, -2, -1, -1, 4), 1, 30.17544983005755)
((-5, 1, 3, 8, 4, 3, 4, 4), 1, 30.19631332359084)
((-4, 3, -1, 2, 3, 0, 2, -1), 1, 30.217790331896666)
((-1, -2, -1, 0, 0, -2, -1, -1), 1, 30.238433165377014)
((30, 2, 0, -2, -3, 2, -1, 2), 1, 30.259705478698322)
((-10, -4, -1, -4, -6, 0, -3, -2), 1, 30.285941217758403)
((85, 8, 1, 0, -2, -3, -3, 4), 1, 30.317381569126752)
((26, 9, 0, 1, -1, 0, 1, 2), 1, 30.339689331171968)
((-1, -7, -6, -2, 0, 1, 0, -3), 1, 30.36689950958731)
((-15, -4, 1, 6, 7, 6, 5, -1), 1, 30.39165334818845)
((21, 5, -2, -2, -2, 1, -1, 6), 1, 30.411826352512133)
((-32, -2, -2, -4, -4, -2, -1, -5), 1, 30.433021691396366)
((-9, -3, -2, -2, -2, -1, -2, -1), 1, 30.455509060461424)
((-3, -1, -2, 1, -3, -2, -1, -2), 1, 30.475538379169233)
((9, 3, -1, -4, -9, -5, -1, -1), 1, 30.49978817775279)
((0, -7, -1, 1, -1, 1, -2, 0), 1, 30.51829511314957)
((0, -6, -1, -3, 0, 1, -3, -1), 1, 30.539890719106594)
((-2, 2, 0, 2, 2, 4, 0, 1), 1, 30.56140878044553)
((0, -4, 1, 1, 2, 1, 2, 1), 1, 30.583570005969793)
((-3, -2, -4, 4, 9, 7, 1, -1), 1, 30.607848883785135)
((0, -1, -1, -2, 6, -1, 2, -13), 1, 30.62871465804249)
((-7, -5, -38, -6, -8, 0, -5, 1), 1, 30.64925828002616)
((-2, 1, 25, 1, 1, 5, 7, -26), 1, 30.669657646212944)
((-60, -14, 1, 14, -3, -12, 9, -12), 1, 30.70109229577114)
((3, 6, 15, -1, -5, -5, -1, -2), 1, 30.721588592730534)
((-2, 6, 98, 49, 7, 0, -4, 0), 1, 30.74729805471343)
((7, -11, -51, -13, -4, -1, 1, 3), 1, 30.770741047160243)
((4, -5, -6, 2, 1, -2, -7, 1), 1, 30.79637752597317)
((0, -1, -7, 0, 4, 0, -2, 1), 1, 30.81907757255696)
((-7, -6, -36, -24, -11, -8, -5, -3), 1, 30.83941821009916)
((2, 2, 18, -2, 3, 0, -3, 0), 1, 30.862230582342978)
((3, 6, 24, 11, 3, 2, -1, 0), 1, 30.885573793112098)
((5, 0, 27, 12, -1, 1, -2, 1), 1, 30.908724852879043)
((9, 8, 24, 42, 5, 4, 3, -1), 1, 30.93118656379841)
((1, 3, 26, 3, 5, -1, -1, -4), 1, 30.95289107432937)
((-2, -6, -28, 0, -3, 1, -2, -7), 1, 30.973346318255658)
((-1, -2, -5, -8, 2, -1, 0, -4), 1, 30.995984785289785)
((0, 1, 25, 10, -1, -5, -2, -3), 1, 31.01915466103024)
((1, -2, -4, -3, 0, -2, -1, -1), 1, 31.038869239817565)
((0, -4, -24, -6, -5, -5, -6, 0), 1, 31.058506273986804)
((2, 4, -45, -3, -2, -2, 0, 1), 3, 31.2687246019994)
((0, 3, 27, -1, 17, 10, -1, 0), 3, 31.290516350225705)
((-2, -9, -45, -36, -8, -3, -1, -2), 2, 31.367482234585015)
((-8, -3, -33, -5, -7, -10, -5, -3), 2, 31.389663986625834)
((-1, 1, -3, 1, -3, -3, -4, -4), 2, 31.414012996706063)
((8, 4, 17, 28, 1, 4, 0, 2), 2, 31.43606360711335)
((4, -2, -44, 5, -14, -5, -3, 0), 2, 31.457290305953432)
((5, 6, 38, 18, 4, 23, 12, 3), 2, 31.48186738843981)
((17, 14, -34, -5, 9, 2, 5, 6), 3, 31.77879599436433)
((7, 2, -31, -16, 4, 8, -20, 24), 3, 31.799645803553254)
((11, 20, 42, -8, -13, -36, -15, -8), 3, 31.823355640715256)
((-4, -2, 7, 12, -1, 0, 3, -4), 3, 32.02634464363401)
((0, -4, 7, -9, 1, -1, 1, -7), 3, 32.05000772595276)
((-6, 14, -7, 25, 5, 5, 0, -4), 3, 32.068788348236914)
((1, 6, 43, -10, -2, -8, -13, -6), 3, 32.08990158105494)
((2, -3, 3, 5, -2, -4, 9, -6), 3, 32.1141776079652)
((-4, -7, 19, 3, 4, 5, 3, 4), 3, 32.13543965802823)
((-5, -8, -20, -15, 1, 1, -8, -2), 3, 32.15340549164143)
((0, 8, 18, 16, 6, -2, -4, 3), 3, 32.174149247161495)
((0, -1, -10, -7, 3, 5, 1, -1), 3, 32.19538734962188)
((-2, -6, -31, -4, -4, -7, 6, 8), 3, 32.217815419861346)
((0, -1, -5, -5, -3, 1, -1, -6), 3, 32.241610784175656)
((3, -3, 28, 4, -5, -2, -6, -3), 3, 32.261600190212384)
((-3, -10, 33, -20, -5, -4, -39, -6), 3, 32.28183705480979)
((-3, -5, 4, -2, -9, -4, -2, 3), 3, 32.316914590875164)
((2, 1, -13, -11, 10, 1, -10, -2), 3, 32.33314821456368)
((1, 8, 17, -2, 6, 0, 3, -3), 3, 32.36153467641372)
((-5, -5, -23, -10, -4, -1, 3, -1), 3, 32.38232119550994)
((4, 3, -13, -16, 0, 3, 18, 0), 3, 32.40338881384673)
((2, 4, -10, 4, 7, -2, -12, -2), 3, 32.43197426887114)
((1, 3, 23, 8, 3, 1, 1, 3), 3, 32.453037895940824)
((-7, -22, -3, -36, -13, -7, 3, 8), 3, 32.47510504159756)
((3, 3, -22, 7, 9, 5, -4, -3), 3, 32.4965752077312)
((-5, -8, -10, 14, -3, -4, 0, 4), 3, 32.51761260647418)
((1, 6, 25, 33, 7, -1, 7, 1), 3, 32.540483707362576)
((2, -2, 36, 11, -7, 2, 17, 1), 3, 32.56213918232621)
((1, 5, 1, -17, -1, 0, 6, 0), 3, 32.58206073682212)
((-2, -3, -5, 2, 0, -1, -2, -4), 3, 32.60207637118556)
((-1, -6, -25, -25, 0, 0, 7, -2), 3, 32.62165524689123)
((-3, -7, -21, 1, -10, -5, -5, -1), 3, 32.646347505942714)
((0, -5, 7, 5, -5, -2, -4, 2), 3, 32.66860509205858)
((0, 2, 13, 21, 0, -2, -2, 0), 3, 32.68815944998059)
((-1, -2, -15, -1, 5, -2, -2, -4), 3, 32.71118735064821)
((1, -1, 5, 1, -6, -4, -2, 2), 3, 32.73121552899399)
((-1, -2, -12, -5, -4, -1, -3, -3), 3, 32.75999541574463)
((0, -6, -41, -19, -10, -3, 12, -6), 3, 32.782149228915706)
((1, 0, 7, 6, 4, 2, -2, 3), 3, 32.80330579549089)
((-2, -9, -6, -12, -6, -6, 4, 2), 3, 32.8293345588424)
((-1, -2, -5, 7, 18, -1, -2, -1), 3, 32.85202206144385)
((-1, -2, -10, -7, -5, -7, -3, -4), 3, 32.876804409095755)
((-1, -1, 7, -3, -14, 1, -4, -1), 3, 32.895876393878765)
((2, -3, -2, 2, 0, 6, -5, 0), 3, 32.91882104811815)
((2, 1, -1, -8, -6, 2, 0, -1), 3, 32.945036260661674)
((1, 0, -1, -9, -12, -7, -2, 0), 3, 32.96788512449047)
((-1, -2, -6, -23, -7, -5, -9, -3), 3, 32.98615030313674)
((-2, 3, 0, 30, 31, 6, 7, -2), 3, 33.00694993639631)
((1, 7, 3, -30, -1, 2, 3, 0), 3, 33.02782198264483)
((-2, 1, 3, -26, -8, -8, -6, -2), 3, 33.04538640882321)
((4, 0, 6, 15, 2, 3, 3, 4), 3, 33.06521730453767)
((0, 6, -15, -2, 8, 1, 0, -3), 3, 33.08532188713951)
((-1, -4, -32, -27, -7, -5, -1, -1), 3, 33.105240020549324)
((-5, -6, -9, 2, -1, 0, -4, -4), 3, 33.12769659983955)
((7, 25, 111, 46, 15, 8, 6, 6), 3, 33.15160143890881)
((0, 21, -8, 1, 5, 5, 12, 5), 3, 33.177259014419306)
((19, -12, -18, -9, 1, 5, 11, 24), 2, 33.29455209145247)
((-8, 0, -18, -30, -4, -4, -1, -16), 2, 33.321430994697884)
((8, 10, -3, -6, 8, 19, -1, -3), 2, 33.35185243259178)
((5, 3, 38, 3, 0, 5, 11, 5), 2, 33.37322965921991)
((0, 17, 40, 17, 3, -2, 2, -7), 2, 33.39276976261654)
((-4, -6, -24, -20, -2, -2, 1, 8), 2, 33.4134650527503)
((1, 1, 1, 9, 5, 8, 3, -7), 2, 33.43542386401411)
((1, 2, 15, -12, -2, -7, -5, 3), 2, 33.45958756526434)
((0, 1, -2, 0, -1, 0, -5, 1), 2, 34.49679130633602)
((-1, -3, -6, -6, 4, -1, -1, -1), 2, 34.52088202441629)
((-1, -7, 0, -13, -10, -4, -4, -1), 2, 34.544596993207435)
((-1, -1, -17, -2, 0, 1, -3, -1), 2, 34.56589211376936)
((0, -4, -2, -6, -2, 0, -2, 0), 2, 34.589406378843094)
((0, 1, 1, 4, 2, 0, 2, 1), 2, 34.61067013944917)
((1, 3, -3, -1, 2, 0, -18, 0), 2, 34.629937696320454)
((-4, -6, -60, -11, -2, -2, -2, -2), 2, 34.650402633324)
((-2, 1, -14, -6, -2, 0, 1, -2), 2, 34.67426299827406)
((-2, 1, 1, -3, 4, 1, -2, 0), 2, 34.70012127750197)
((-1, -8, -45, -16, -1, -1, -1, -1), 2, 34.72059305667771)
((1, 7, 20, 6, -1, 3, 1, -1), 2, 34.743716177574896)
((-1, -3, 16, 2, 0, 2, 2, -2), 2, 34.77377441016199)
((1, -3, 16, 7, 8, 2, 9, -2), 2, 34.79961273305436)
((4, 6, 36, 17, 2, -1, 2, 0), 2, 34.82300212848573)
((0, 0, -4, -10, -5, -1, -5, -2), 2, 34.844349135520055)
((-1, -1, 3, -1, 4, 3, 1, -1), 2, 34.86596127672652)
((-1, -1, -15, 0, -7, -4, -3, -1), 2, 34.89719921383442)
((-1, -1, -14, -6, -6, -1, -1, -2), 2, 34.91632365527084)
((0, -3, -10, 0, 0, -1, -1, 1), 2, 34.93900488588112)
((0, 4, 16, 6, -1, -4, -2, -3), 2, 35.668195131908526)
((-18, -7, -12, -12, -3, -2, -2, -3), 2, 35.69309949829773)
((2, -15, 22, 8, -2, 1, 2, 0), 2, 35.721648461737146)
((11, -8, -8, -2, 0, 0, 7, 25), 2, 35.7446660991465)
((110, -9, 4, -13, -9, -3, 12, 35), 2, 35.76544805679459)
((25, 18, -40, -12, -2, -7, -10, -6), 2, 35.790217290283145)
((-47, -16, 12, 4, 10, 5, -2, -34), 1, 35.85458673565097)
((-97, -7, 6, -6, -8, 2, 0, 5), 1, 35.87301384570559)
((-72, -26, -6, -21, -12, -10, -6, -33), 1, 35.894448660616284)
((-8, -5, -19, -2, 1, 5, -6, -18), 1, 35.91891170689959)
((-11, 24, 15, -6, -2, -3, 6, 2), 1, 35.93975182301125)
((10, -31, 1, -5, -3, -9, -17, -7), 1, 35.959632894655066)
((3, 12, 2, 4, -4, -3, -2, 5), 1, 35.978621062828815)
((11, -2, -5, -10, -9, -1, -2, 3), 1, 36.00389775742105)
((2, 8, 0, 0, 2, -3, -3, 9), 1, 36.028576902309176)
((31, 6, 2, 3, 0, -2, -4, -1), 1, 36.052197791232786)
((-3, 0, 0, 4, 2, 2, -1, -2), 1, 36.07503582162229)
((18, -8, -1, 2, -3, 3, 0, -4), 1, 36.09539584531901)
((13, 12, -2, 1, 2, 0, -1, 4), 1, 36.12703404949969)
((-5, 0, 0, 2, 2, 1, -1, 1), 1, 36.14947580408352)
((-4, -2, 0, 0, -1, -2, 2, 0), 1, 36.178756879946675)
((-8, 4, 0, 0, -4, -5, -1, -2), 1, 36.20367493068024)
((-14, -1, 1, 8, 11, -3, -3, 2), 1, 36.23042098174908)
((-3, -3, -2, -3, -9, -5, -5, 2), 1, 36.24849286903113)
((-8, -16, -2, -9, -11, -8, 0, -11), 1, 36.270748174422934)
((13, -13, -1, 4, 11, 2, 1, 1), 1, 36.298754325535725)
((7, 3, 0, -6, -5, -1, 2, 0), 1, 36.329682654352276)
((-16, 1, 1, 8, 3, 3, 4, 4), 1, 36.35255432542169)
((-10, 3, 1, -1, -5, -2, 0, 4), 1, 36.37349308284901)
((10, 7, 0, 9, 15, 5, 1, 1), 1, 36.39350130485926)
((-2, 8, 1, 3, 3, 1, 1, 0), 1, 36.42018748692147)
((22, 11, 1, -5, -3, 1, -2, -3), 1, 36.4434121000394)
((16, -12, -4, 16, 5, 0, -2, -5), 1, 36.46327891715783)
((-3, 5, -1, -5, -3, 1, 1, -1), 1, 36.492517799625844)
((1, -5, -3, 6, -9, -4, -3, 0), 1, 36.51869652058439)
((-10, -13, -3, -5, -3, 1, -2, -2), 1, 36.54264982503996)
((12, -1, -1, -10, -11, -1, 2, 1), 1, 36.56286388239675)
((-1, -7, -1, -4, -6, 5, 2, 4), 1, 36.58793189073735)
((-10, 5, -1, -5, -2, -2, 1, -3), 1, 36.60909130821762)
((7, 1, 2, -3, 1, 1, -1, -2), 1, 36.63352812617422)
((-2, -4, 0, -23, -20, 1, -2, -2), 1, 36.655053029685334)
((1, -4, -3, -8, -9, -14, -9, 0), 1, 36.67676267184543)
((9, -4, -1, 13, -1, 3, 2, -8), 1, 36.69737528573196)
((-9, -5, -1, -1, 7, 3, 1, 0), 1, 36.7196876092253)
((-3, -1, 2, 36, 2, -8, 2, -1), 1, 36.74464215154385)
((-19, -13, 1, 37, 40, 5, 3, 0), 1, 36.766066703196266)
((4, -6, 2, -19, -6, -3, -3, -2), 1, 36.79128980077305)
((2, -6, 0, -14, -16, 2, -2, 3), 1, 36.81144855057135)
((7, 21, 1, -19, -4, -2, 4, -3), 1, 36.84078778489807)
((-4, 5, -65, -23, -10, 1, 1, -2), 1, 36.86354370922137)
((-3, -12, -37, 3, 1, -3, -4, -1), 1, 36.89100248655941)
((0, 0, 47, 37, -1, -5, -1, -2), 1, 36.91232668635312)
((-4, -11, 1, 1, 4, 2, 0, -2), 1, 36.94286159026906)
((5, 10, -16, 15, 7, 3, 7, 3), 1, 36.96387675195244)
((3, 0, -17, -1, 3, 3, -1, 1), 1, 36.98944423886251)
((10, 13, 42, 25, 22, 10, 5, 1), 1, 37.01191678322117)
((-15, 6, 49, 31, 5, 3, 7, 18), 1, 37.04106500690774)
((6, -9, -9, -3, 4, 0, -7, 1), 1, 37.06360540280723)
((-12, -25, -36, -19, -13, -13, -10, -34), 1, 37.085109209620775)
((-26, -7, 17, -22, -14, -17, -7, 92), 1, 37.10666262218266)
((-26, -7, 17, -22, -14, -17, -7, 92), 1, 37.12419739894825)
((-8, 25, 98, 39, -1, -9, 5, -70), 1, 37.1512040227411)
((11, -25, 97, 14, -9, -9, -37, -25), 1, 37.16964424695908)
((-3, 16, 63, 12, 1, 4, 0, 1), 2, 37.2711923454339)
((4, -15, 34, 14, -2, 3, 2, -26), 2, 37.29701014180972)
((3, 7, 1, -7, -1, -1, 4, 34), 2, 37.33267154323483)
((18, -5, 24, -39, 1, 1, -2, 8), 2, 37.36061554461695)
((-1, 3, -2, 44, 4, -1, -1, -3), 2, 37.38064885459187)
((-12, -21, -101, -37, -13, -6, -4, -13), 2, 37.4092166340048)
((-3, 0, 40, -9, 4, 0, 0, -13), 2, 37.43001797780742)
((1, -2, -16, -7, -2, 1, 0, -3), 2, 37.455867134139076)
((27, 1, 39, -34, 3, -3, -8, -14), 2, 37.477908621650116)
((10, -1, -21, -2, 1, 0, 1, 11), 2, 37.497977282847984)
((-10, -13, -62, -28, -6, -2, -1, -17), 2, 37.52304586136961)
((9, 1, 54, 14, -1, 0, 2, 0), 2, 37.54741026633725)
((-7, -10, 63, 12, -10, -10, -8, 3), 2, 37.57094847901363)
((1, 4, -12, 6, -1, -7, -6, -7), 2, 37.59341703210518)
((-2, 4, 10, 3, 0, 2, 4, 10), 2, 37.6141254364023)
((-4, -6, -19, -4, -1, -3, -5, -8), 2, 37.64000709305183)
((4, -5, -2, -4, -4, 0, 1, 3), 2, 37.662923238240445)
((-7, 2, 42, -5, 0, 0, -2, -3), 2, 37.68716220338471)
((-4, -4, 22, 2, 2, 3, -1, 4), 2, 37.70925728791119)
((2, 2, 5, -4, 4, 6, 3, 1), 2, 37.73227492532054)
((-6, 0, 23, 9, 1, 4, 2, -5), 2, 37.763259131876595)
((1, 2, -17, 26, 2, 1, -1, -3), 2, 37.79130576584148)
((-1, 2, 61, 9, 1, 0, 1, 0), 2, 37.81208943403262)
((-1, -5, 5, -8, -4, 6, 8, -1), 2, 37.83527584502252)
((-3, 0, 14, 0, -5, 1, -3, -3), 2, 37.86122250230781)
((4, 9, 14, -10, 9, 1, 0, 0), 2, 37.88433136867962)
((-4, -11, -23, -20, -13, 1, 10, -4), 2, 37.90704281888371)
((-2, -7, -6, 49, 9, -16, 8, -1), 2, 37.92914987721152)
((-4, -8, -16, -15, -14, 0, 0, -2), 2, 37.956177597701945)
((3, 10, 1, -44, -4, -1, 3, 3), 2, 37.98266820767589)
((-8, -2, -8, 47, 22, 4, -4, -3), 2, 38.004636141835945)
((-6, -3, -6, 23, 10, -1, -4, 0), 2, 38.032954752145166)
((-55, -9, -1, -26, -4, -5, -4, -2), 2, 38.05679230985461)
((-69, -17, -18, 6, 5, 15, 10, 7), 2, 38.08844077729357)
((49, 15, -33, 32, -3, -5, -6, -34), 2, 38.11032261412031)
((-4, 18, -22, 35, 2, 2, 1, 2), 3, 38.18296367547806)
((-5, 11, -56, -51, 3, 15, 77, -37), 3, 38.21052109413176)
((-64, -18, -13, -20, -9, -1, 2, -14), 3, 38.233751409059835)
((-16, -16, 11, -9, 2, 8, -19, 10), 3, 38.261716507139525)
((52, 19, -16, 1, 0, 13, 34, 45), 3, 38.283388517352606)
((-23, 8, -28, 25, 3, 5, 25, -25), 3, 38.31044303635075)
((-11, -8, 32, 7, 2, 5, 7, -4), 3, 38.339048447710695)
((-9, -28, -24, -26, -15, -1, 8, -30), 3, 38.360817958877405)
((-9, -7, -3, 7, -3, 0, 3, -23), 3, 38.38570122856903)
((4, -1, -30, 1, -5, -3, 6, 17), 3, 38.407487274985186)
((5, -4, 22, 5, 3, 2, 3, 0), 3, 38.42869458767075)
((16, 0, 11, 2, 3, -2, 8, -1), 3, 38.45171393562314)
((4, -11, -12, -14, -6, -5, 10, 3), 3, 38.47866810276258)
((1, 4, 25, 24, 3, 0, 2, -11), 3, 38.504686602855806)
((0, 3, -20, -13, 2, 1, -2, -15), 3, 38.52681988951032)
((-3, -7, -4, -5, 0, 3, -2, -14), 3, 38.55215417238511)
((-6, -6, 7, 1, -1, -2, 3, -3), 3, 38.577339638014884)
((2, 7, -5, 33, 2, 0, -1, -6), 3, 38.60195948407741)
((1, 2, -1, 4, 4, 6, 6, -7), 3, 38.62529072104521)
((-5, 0, -1, -4, -3, -4, 6, -7), 3, 38.64603561692731)
((0, -10, -35, 6, -7, 0, -2, -1), 3, 38.6744574300003)
((1, 1, 9, 6, 1, 5, 2, 6), 3, 38.69680681525964)
((2, 2, -13, 8, -2, -3, 0, 2), 3, 38.71807855839994)
((-3, -3, -6, 7, 0, 0, -1, -4), 3, 38.74183629076723)
((-4, -7, 6, -5, -3, -2, -3, -2), 3, 38.763655977863294)
((-2, 0, 21, -14, 4, 9, 4, -2), 3, 38.79272893765584)
((-2, 0, 21, -14, 4, 9, 4, -2), 3, 38.809332608823325)
((-2, -3, -6, 5, -2, 1, 0, 0), 3, 38.833430169075775)
((-2, -7, -12, -26, -11, -8, -2, 2), 3, 38.85633377028205)
((-2, 0, 3, 1, -4, -5, -1, -2), 3, 38.88129800567786)
((1, 8, 26, 19, 11, 4, 6, 0), 3, 38.905108764879586)
((1, -1, -8, -7, -3, -5, -3, 2), 3, 38.92651792164458)
((-1, -3, 13, -2, 4, 6, 5, -5), 3, 38.9516269830183)
((-2, 1, 7, -2, -12, -2, 2, 0), 3, 38.97612252961948)
((-5, -10, -3, -9, -11, 2, 1, -3), 3, 39.00288511593776)
((0, -9, -1, 2, 6, 5, -1, 0), 3, 39.02486217299406)
((0, -1, -7, 9, 2, 7, 4, -1), 3, 39.04937767593078)
((-1, -9, -10, 48, 1, -1, -2, 2), 3, 39.070834727901065)
((-1, -3, -49, -3, -11, -2, 0, -2), 3, 39.098573464117656)
((0, 3, 31, -5, 13, 6, 5, 0), 3, 39.11820137539065)
((-3, 0, 47, -13, -9, 5, -1, -1), 3, 39.140422469921525)
((1, -2, -19, -10, -8, -2, -5, -2), 3, 39.16149978133558)
((-1, -5, -32, -13, -1, -1, 0, 1), 3, 39.18436232950875)
((-2, 0, -29, 10, 4, -2, -3, -4), 3, 39.19523112002367)
((-8, -10, -52, -12, -3, -6, -4, -5), 3, 39.21548394968951)
((7, 9, 17, 30, 12, 3, 2, 4), 3, 39.23677336844128)
((-12, -17, -72, -86, -12, 1, -1, -6), 3, 39.25637448120655)
((10, 0, 18, 5, -1, -1, 2, 3), 3, 39.27438022749082)
((11, 11, 46, 6, 5, 3, -13, 3), 3, 39.30651676987893)
((-36, -21, 16, -1, -8, -22, -72, 81), 1, 39.36257582694778)
((38, -9, -7, -4, -1, -3, -7, 111), 1, 39.38772879225968)
((44, 10, 26, 14, 5, 1, -22, 18), 1, 39.41434769296208)
((61, 30, 76, -25, 2, -2, 1, 12), 1, 39.44067238026056)
((-46, -52, 6, -1, -6, -9, 2, 38), 1, 39.459659408072284)
((63, 82, -2, -12, 12, 13, -3, 31), 1, 39.486504670637785)
((25, -45, -18, -2, 0, -9, -12, 35), 1, 39.50983761814863)
((49, -4, 2, 16, 7, 6, 27, 9), 1, 39.53032422203077)
((19, 7, -8, 7, 10, 10, 2, 5), 1, 39.55704689567797)
((7, 7, 17, -10, -2, -7, -6, 1), 1, 39.5776184565314)
((-11, -2, 6, -4, 5, -4, 0, -17), 1, 39.602278215265)
((5, 8, 7, -17, -5, 0, -2, -1), 1, 40.411810957624716)
((4, -5, -2, -5, 3, -1, 1, -2), 1, 40.433850164411695)
((2, 11, -13, 13, 8, 1, 3, 1), 1, 40.45689288978572)
((-1, 2, 59, 32, 6, 0, -2, -16), 1, 40.48281103802024)
((5, 5, -90, -51, -1, 9, 23, 7), 1, 40.50297605980971)
((27, 3, -12, -60, -8, 1, 6, 32), 1, 40.53203191417179)
((15, 7, 21, 25, -2, -4, 7, 37), 1, 40.553622388499676)
((-37, 3, 117, -7, -1, -6, 4, -82), 1, 40.581930735550614)
((-17, -27, -5, -27, -9, -18, -35, -76), 1, 40.604832056032826)
((1, -23, 74, 35, 3, 5, 8, 18), 1, 40.6342733527613)
((-1, -6, -112, -12, 0, -7, 1, 5), 2, 40.75754705846465)
((-5, 5, 1, 0, 5, 4, 4, 0), 2, 40.78888021580211)
((-21, 7, 19, 9, 9, 5, 4, -9), 2, 40.80963936620959)
((-3, 4, 58, 4, 3, 6, 5, 8), 2, 40.83637116275304)
((-4, -12, 25, 6, -3, 1, 1, 11), 2, 40.856516798387986)
((3, 2, -11, 27, -1, -9, -6, -6), 2, 40.87574843385529)
((8, 0, 18, -32, -2, -1, 0, 3), 2, 40.89776711412572)
((-7, -9, -33, -34, -14, -7, -1, 13), 2, 40.9203183434645)
((10, 3, 32, 17, -1, 1, 1, 22), 2, 40.94772808523522)
((4, -4, 6, 3, -4, -3, 0, -6), 2, 40.96909219770001)
((-1, 5, 33, 9, -1, 1, 0, 0), 2, 40.99133324856642)
((-2, -4, 1, -3, -5, -4, -1, 3), 2, 41.01773319975893)
((-10, -6, -8, -55, -7, -1, -4, -4), 2, 41.04496048360473)
((2, 0, -28, -26, 0, -1, 0, -4), 2, 41.06595454859054)
((1, -2, -3, -4, -4, -3, -2, 1), 2, 41.090899397831826)
((4, -2, 12, -5, -3, -1, 0, 4), 2, 41.11142762492808)
((3, 2, 13, 30, -1, -2, 0, 2), 2, 41.14129997850418)
((-2, -1, 19, -8, 2, -3, -3, 2), 2, 41.1621982530794)
((-5, -4, -19, -3, -4, -2, 0, -5), 2, 41.18625704102281)
((-2, -3, -18, -41, -8, -6, -4, -2), 2, 41.20603605026488)
((2, 3, 16, 14, 4, 1, 0, 3), 2, 41.226810025378754)
((-2, 0, -18, -11, -3, -2, -3, 0), 2, 41.250116744562895)
((1, 2, -4, 1, 0, -7, -4, -1), 2, 41.27193472111591)
((0, 1, 23, 6, 8, 1, 0, -2), 2, 41.299752712493635)
((-1, -5, -66, 3, -2, 1, 5, 1), 2, 41.33060121596803)
((-2, -2, -9, 10, -7, -9, 2, -2), 2, 41.35605580703706)
((1, 2, -2, -20, -14, -6, -3, -1), 2, 41.3814664941679)
((-2, -1, 2, 12, 7, 0, 0, 0), 2, 41.404757248283616)
((-1, -1, 13, 9, 16, -3, -1, -1), 2, 41.42960003512315)
((-1, 1, -7, 6, 3, 2, 1, -1), 2, 41.45714148870842)
((14, 2, 3, 19, 8, 3, 2, 2), 2, 41.48015912611777)
((18, -3, 6, -46, -11, -5, 0, 2), 2, 41.50135503518302)
((-1, -2, 0, -16, 12, 4, 0, -2), 2, 41.52349972545784)
((9, -14, -2, 2, -8, 1, -1, 1), 2, 41.547661145984016)
((-46, -3, 26, 46, 3, 1, 1, -2), 2, 41.57082531991431)
((-35, 13, 57, -8, 2, 2, 2, 1), 2, 41.59007120990701)
((34, 10, 19, -32, -9, 2, 6, 18), 2, 41.61079900035865)
((68, -26, 54, -4, -12, -21, -3, 0), 3, 41.659889305057675)
((8, 0, 10, -4, -1, -4, 7, 17), 3, 41.84054716850959)
((-20, 4, -20, 13, -3, -2, -8, -1), 3, 41.869136044620085)
((8, -2, 4, -8, -1, 0, -7, 0), 3, 41.890216206939215)
((9, 2, -13, -20, 4, -2, -5, 15), 3, 41.91497118590239)
((5, 3, 27, 8, 2, -2, 9, 5), 3, 41.93736333473788)
((7, 2, 25, 12, -1, -3, -16, 28), 3, 41.956569882240515)
((12, -1, 3, 3, -3, -5, 3, -2), 3, 41.9816036797202)
((3, 1, 2, -8, 6, 13, 26, -1), 3, 42.00210909957584)
((-10, -2, -10, -13, -4, -7, -2, 3), 3, 42.02244688621297)
((0, 5, 21, 6, 2, -2, 1, -1), 3, 42.04483675432439)
((0, 5, 21, 6, 2, -2, 1, -1), 3, 42.063436059045664)
((9, 3, 7, -17, -3, 1, -4, -10), 3, 42.09017127667521)
((-2, -3, 6, -5, -7, -1, 0, 2), 3, 42.114565901236666)
((3, 8, 5, 6, 1, -2, 4, 0), 3, 42.145709758477025)
((-1, -11, 16, -43, -7, -4, 2, -8), 3, 42.17345362632275)
((8, 2, -27, -10, 5, -2, 1, 16), 3, 42.203077951157155)
((-1, -1, -13, -4, 9, -1, -8, -2), 3, 42.22880280802747)
((2, 3, -7, 28, 0, -6, -1, 6), 3, 42.26210308986794)
((2, -3, 3, 3, 0, 12, 11, 10), 3, 42.287457329078265)
((1, 2, -13, -9, -5, -6, 3, 13), 3, 42.33170907768089)
((6, -3, -8, 6, -1, -4, -3, 18), 3, 42.36937181446994)
((-13, -19, -48, -44, -17, -4, 12, -11), 3, 42.394081749132894)
((-3, 1, 3, 11, 1, 4, -3, -6), 3, 42.41742381953999)
((-2, 0, 8, -1, -12, -3, -5, -5), 3, 42.441194666070636)
((-1, 3, -5, -10, 12, 5, 1, -5), 3, 42.470810438189815)
((-3, 2, 9, 9, 3, 1, 2, 9), 3, 42.495824849514975)
((-5, -7, 8, -9, -7, -5, 8, 32), 3, 42.52025596566142)
((-6, -6, 6, 8, -7, -2, 4, 22), 3, 42.5446106775518)
((0, 3, 34, -17, -5, 0, -10, -20), 3, 42.574535487781304)
((-1, 0, 19, 16, 0, -3, 3, 0), 3, 42.59783707533631)
((-1, 3, 32, 9, -5, -3, 1, 15), 3, 42.61933061889158)
((0, -6, -7, -13, 5, 1, -3, -7), 3, 42.65042886165071)
((-1, 0, 36, -1, -2, -7, -2, -5), 3, 42.681011660771944)
((-3, -5, 7, 1, -15, -12, -7, -2), 3, 42.70643204098005)
((2, -1, -23, -13, 6, 3, -3, -2), 3, 42.73205369508658)
((-3, -7, 2, -20, -1, 2, 4, 4), 3, 42.75724030107838)
((-2, -3, -61, -5, -2, 1, 2, -2), 3, 42.796945996445494)
((-5, -1, 17, 12, 0, 0, 4, -1), 3, 42.827433005156145)
((1, 4, -7, 19, 4, 2, 2, -1), 3, 42.85437234758919)
((8, 3, -30, -9, 3, 7, -17, 4), 3, 42.88875711372089)
((-10, -13, -5, -4, -5, -6, -5, -4), 3, 42.917598009840184)
((-5, -2, 7, 0, -2, -7, 2, 5), 3, 42.94987766766315)
((16, -6, -24, 1, -3, -7, -5, -13), 1, 43.037940414943535)
((-7, 15, 14, 2, -2, -1, 4, 4), 1, 43.07137639986566)
((15, -4, 12, -11, -4, 5, 3, 2), 1, 43.104815235692875)
((39, 2, -1, -11, 7, 2, 5, 5), 1, 43.131188958558674)
((16, 102, 2, -2, -11, -1, 4, 6), 1, 43.156367582016266)
((22, -26, -9, -2, 1, 5, 3, -6), 1, 43.18612361866522)
((-30, 2, 1, 1, 0, 6, 5, 1), 1, 43.27482553886382)
((9, 3, 3, -5, -3, 0, 0, -2), 1, 43.33384782666953)
((-75, 6, 3, 8, 3, -3, 8, 5), 1, 43.36931023492028)
((-18, -1, 1, 0, -1, 11, 3, 12), 1, 43.40426290134329)
((33, -5, -1, 4, 3, 0, -3, -3), 1, 44.347427827912526)
((4, -9, -1, 14, 1, 6, 7, 2), 1, 44.36865623729565)
((-12, -6, 0, 1, 2, 0, 3, 0), 1, 44.3909206655837)
((-1, -1, 2, 1, 4, 7, 3, 5), 1, 44.419719938488875)
((6, 7, -2, -5, -6, -13, -5, 0), 1, 44.43985645122757)
((-4, 0, -2, -1, -3, -4, -3, -1), 1, 44.46086819182486)
((-5, -5, -2, -1, -4, -4, 0, 1), 1, 44.484186314629305)
((9, 1, 0, -3, 1, 1, 0, 0), 1, 44.506251749742994)
((-4, -1, 0, 8, 11, 1, 0, -2), 1, 44.53143835573479)
((10, -2, 0, 2, 5, -1, -1, 0), 1, 44.553993006159665)
((-1, 8, 1, -3, -4, 0, 0, -3), 1, 44.57583093904822)
((-12, -6, -1, -2, -3, -2, -2, -2), 1, 44.59763694179991)
((40, 4, 0, -8, -7, 0, 0, -1), 1, 44.6260177018398)
((-2, -1, -1, 7, -3, -4, -2, 3), 1, 44.697173441652524)
((-4, 5, 0, -6, -3, -1, 0, -4), 1, 44.72749338732567)
((-74, -23, 2, 14, 11, 1, -2, -1), 1, 44.75006001155187)
((25, 12, -1, -4, -3, 1, 0, 2), 1, 44.775691358735656)
((5, 0, -2, -2, -1, -1, 1, -1), 1, 44.799556855314854)
((2, -8, -3, 3, -1, 1, -1, 0), 1, 44.823571169139065)
((-1, -1, -4, -5, -4, 5, -2, -1), 1, 44.845376601709745)
((-8, -1, 0, 1, 2, -2, 0, -2), 1, 44.86682909223191)
((-8, -1, -3, 1, 1, 1, 2, 0), 1, 44.889107775045346)
((-13, -5, 0, -2, 0, 5, -3, -2), 1, 44.91628317241875)
((29, 4, -2, -10, -4, 0, 3, 9), 1, 44.9397312964947)
((22, -4, -3, -7, -1, -1, -2, -1), 1, 44.96118093611179)
((34, 6, -1, -3, 1, 2, -1, 5), 1, 44.980703363896936)
((-21, -9, 0, -2, -5, -4, -4, -3), 1, 45.00079882360253)
((12, 1, 0, 3, -1, -2, -2, -1), 1, 45.031471711324194)
((3, -3, -2, -5, -2, -3, -2, -1), 1, 45.053660875718215)
((3, 9, 1, -3, 0, 0, 0, 0), 1, 45.07671728543661)
((6, 2, 1, 0, -2, -1, -1, -1), 1, 45.09813043346871)
((-4, 4, 2, 2, 5, 2, 0, -1), 1, 45.12000485794225)
((-16, -2, 1, -7, -3, -1, -1, -2), 1, 45.147788638459055)
((-5, 3, 1, -2, 0, -1, 2, -3), 1, 45.16877700163471)
((3, -2, -2, 1, -3, -4, 0, 1), 1, 45.193862685586794)
((-3, -8, -1, 7, 6, 2, -1, -3), 1, 45.212119311517824)
((1, -2, -1, 2, -3, -1, -3, 0), 1, 45.23506624648127)
((-9, -1, -2, -10, -5, -2, -2, -2), 1, 45.25681238022635)
((-9, -4, -1, -3, 0, -2, -3, -2), 1, 45.28001133519859)
((15, 3, 1, -7, -6, -4, -4, -2), 1, 45.30648826082817)
((3, 1, -1, -9, -4, -2, -1, -4), 1, 45.33665653835123)
((-3, -4, 0, 4, 6, 1, 1, 1), 1, 45.3572001603349)
((3, -2, -3, -4, -3, 1, 0, -1), 1, 45.380287359828124)
((13, -1, -4, -2, -2, -4, -4, -3), 1, 45.40502295263677)
((-5, -2, -1, -3, 2, 6, 0, 2), 1, 45.43252848481808)
((-16, -1, -1, -2, 2, 4, -1, 2), 1, 45.45854470418724)
((0, 0, -2, -1, -3, -9, -5, -3), 1, 45.47672207495714)
((22, 4, 1, 3, -4, 1, 1, 4), 1, 45.49941870045483)
((5, 1, 2, 2, 8, 3, 1, 1), 1, 45.529663382233956)
((-8, 2, -1, -11, -10, -5, 1, 0), 1, 45.5552519658416)
((-3, -1, 2, -5, 1, -5, -7, -2), 1, 45.578515351268564)
((-7, 0, 4, -9, 0, 0, -4, -2), 1, 45.599864639026954)
((-2, -2, -9, 2, 2, 4, 3, 0), 1, 45.62288455716036)
((-6, -8, -82, -13, 0, 3, 0, 0), 1, 45.65054061712972)
((1, 2, 17, 1, -5, -6, -2, 0), 1, 45.671839158777736)
((-2, -4, 31, 11, 3, 1, 0, 1), 1, 45.69365371424466)
((0, -10, 5, -6, 1, 1, 2, 1), 1, 45.71437181161903)
((-6, -29, -107, -91, -8, -2, -3, -2), 1, 45.73819283407904)
((5, 15, 19, 28, 9, 4, 0, -11), 1, 45.75928611056152)
((-17, 4, 64, -27, -3, 3, 5, -20), 1, 45.790770936049064)
((32, -18, -20, -16, -9, 1, 5, 21), 1, 45.816646320707434)
((-41, -14, -45, -44, -7, 0, 3, -12), 1, 45.843079912579846)
((1, 7, -64, -24, -6, 2, -18, 103), 1, 45.86541789421888)
((-7, -5, -16, -45, -6, -2, -1, -6), 2, 45.99020314979396)
((1, 3, 17, 16, 1, -4, -1, -4), 2, 46.013105610638206)
((-1, -2, 5, -1, -3, 7, 0, -6), 2, 46.03355230184927)
((2, 5, 22, 0, -1, -5, 4, 43), 2, 46.06104072860011)
((-4, 0, 32, -5, -1, 0, -1, -24), 2, 46.08206786408481)
((-3, -7, -23, 1, -2, -1, -3, -12), 2, 46.1014990629075)
((2, 0, 42, 8, 3, -1, 1, -2), 2, 46.121742199496076)
((-1, 6, 22, 21, 4, 0, 1, 0), 2, 46.14432935023882)
((3, -4, -43, -25, -2, -3, 3, 2), 2, 46.166398776619616)
((-2, -4, -15, -18, -6, -5, -3, 0), 2, 46.18662195687265)
((-2, -8, -5, -11, 0, -2, 1, -3), 2, 46.206368465796835)
((0, -1, 0, -12, -1, -2, 0, 1), 2, 46.22809863447348)
((0, 2, 12, 4, 0, 1, 2, -2), 2, 46.254339505162704)
((-2, 1, 4, -9, -3, -4, -2, -4), 2, 46.27611927958769)
((0, -2, -5, -5, 2, 4, 1, 0), 2, 46.30178141654631)
((1, 2, 47, 22, -1, -2, -3, 2), 2, 46.33251987508474)
((1, 3, -34, -8, 1, 0, -1, -1), 2, 46.360988443001)
((-1, -3, -30, -3, -1, -1, 0, 0), 2, 46.3796852486759)
((-2, 1, 18, 0, -3, -4, -2, -2), 2, 46.403822721599425)
((-1, -8, -67, 30, -2, -3, 0, -1), 2, 46.426279300889654)
((1, -1, 15, -7, -2, -1, 1, -2), 2, 46.45357272573324)
((-1, -3, -9, -12, 0, 1, 1, 0), 2, 46.476344615124965)
((-1, -4, -5, -17, -4, -2, 0, -2), 2, 46.49787807135131)
((-2, 5, 20, -7, 6, 2, 0, -2), 2, 46.51964359125091)
((-1, 3, 20, 0, 1, 1, -1, 1), 2, 46.54185784360961)
((-1, -2, -4, 12, -2, 1, 0, -1), 2, 46.56654782193703)
((-2, -6, -32, -13, -1, 2, 6, -1), 2, 46.58825803427814)
((0, 0, 11, 0, 0, 0, 0, -1), 2, 46.61071176266329)
((-2, 1, 16, 6, 2, -1, -3, 0), 2, 46.636863685114115)
((1, 0, 18, 0, 0, 0, 0, 0), 2, 46.661460153755016)
((0, 4, 15, 2, -2, -3, -2, 1), 2, 46.68664961065189)
((-2, 0, 5, -1, 4, 0, -3, -2), 2, 46.70958286127097)
((-2, -3, -9, 5, -2, 0, 1, 0), 2, 46.730669295581265)
((-2, -3, -4, -12, -6, -3, -1, -3), 2, 46.75670148001886)
((0, -1, -6, 5, 1, 0, -1, -1), 2, 46.77711852181712)
((-1, -1, -13, -5, -2, -1, 0, 0), 2, 46.79903856077189)
((0, 1, -5, -4, -1, -2, -4, 0), 2, 46.82380038190725)
((-2, -1, -18, -4, 1, 1, 0, 1), 2, 46.84537375080467)
((-5, -10, -10, -27, -8, -2, -3, -1), 2, 46.86723791201993)
((2, 2, 21, 13, 5, 1, -1, 2), 2, 46.88876452607409)
((-3, -1, 46, -7, -1, -3, 0, -2), 2, 46.90972837146609)
((0, 1, 16, 11, 0, -1, 2, 1), 2, 46.92971492659775)
((-1, -2, -5, 6, -2, 0, 0, -1), 2, 46.94924476673609)
((-2, -3, -9, 6, 3, -2, -2, 1), 2, 46.97465488368592)
((1, 0, -1, -3, -7, -3, 0, -1), 2, 46.99511183815526)
((0, 2, 16, -16, -10, -3, -1, 0), 2, 47.01743271436383)
((-2, 1, 6, 2, 7, 0, 0, 0), 2, 47.03947591241791)
((0, -6, -7, -2, 8, 2, 2, 1), 2, 47.069124184854964)
((-1, -4, -11, 3, -11, -4, 0, -2), 2, 47.0914399294344)
((1, 0, -4, 18, 9, -4, -2, 1), 2, 47.11395637773124)
((-1, -3, 3, 10, -8, -7, -2, -2), 2, 47.140937343378404)
((1, 3, 3, -6, -7, 0, 2, 2), 2, 47.161674256726286)
((2, -4, 12, 0, 3, 0, -1, -1), 2, 47.192802719079225)
((-62, -4, 13, 33, 15, 5, 4, -4), 2, 47.212756773893005)
((-82, -26, -14, -7, -2, -3, -5, -14), 2, 47.23770846530648)
((-12, -9, 3, 19, -3, 2, 1, 1), 2, 47.25965986421709)
((8, -2, 17, 11, -2, 9, 79, -6), 3, 47.344408149255145)
((28, -3, 25, -10, 2, -2, -19, -12), 3, 47.36924124301742)
((-4, -6, -11, -10, -7, -9, 1, -5), 3, 47.3944603493271)
((-22, -1, 10, 8, -16, -25, -69, -55), 3, 47.416132359540185)
((20, 10, 17, -1, -2, 7, 0, 20), 3, 47.437115020905686)
((9, 3, -21, -4, -5, -2, 6, 8), 3, 47.4596080917809)
((-8, -10, 32, 2, 0, -3, 2, -11), 3, 47.48317196260297)
((3, -3, 10, 4, 2, 1, 1, -2), 3, 47.50717772371195)
((3, 5, -15, 8, -6, -3, -13, 5), 3, 47.528443194861076)
((4, 3, 10, -10, -6, 0, 3, 1), 3, 47.55552850363405)
((-2, -4, 3, 8, 12, 3, 8, 0), 3, 47.57957930904324)
((-2, 3, -7, 16, 1, -1, 0, 0), 3, 47.60821265927294)
((-2, 1, -7, -10, -3, -1, 4, -2), 3, 47.62873860564513)
((-13, -4, 2, 15, 0, -7, 2, -2), 3, 47.65175567287347)
((0, -6, -13, -2, 2, -12, -6, -3), 3, 47.676389203280365)
((2, 2, -15, 13, 2, 12, 35, 6), 3, 47.70041663126793)
((-3, -6, -13, 2, 2, 1, 9, -3), 3, 47.7223292578695)
((-1, 0, 9, 1, 1, 2, -16, -1), 3, 47.74489702245772)
((9, 2, 10, -20, 4, 0, 4, -4), 3, 47.76552446105065)
((4, 8, -19, 17, 11, 4, 1, 3), 3, 47.79280819281697)
((1, 5, 6, 8, 2, 0, -21, 2), 3, 47.81423502519345)
((1, 0, -7, 0, -6, -8, -3, 12), 3, 47.83615563432923)
((-1, 2, 5, 15, 3, 1, -2, -7), 3, 47.85693588143428)
((-3, -8, 5, -9, -9, -1, -5, -5), 3, 47.88073523701569)
((-4, -10, -11, -4, -8, -5, -5, -2), 3, 47.905379600861885)
((-12, -2, -9, -12, 1, -11, -9, -5), 3, 47.926496824947016)
((1, 0, -17, -4, 0, 3, 3, 3), 3, 47.95280725772011)
((-2, -2, 1, -7, -7, -2, -9, -3), 3, 47.97527581081166)
((-2, -3, 0, 1, 4, 1, 2, -1), 3, 48.00186335155822)
((3, -8, -8, -14, -5, -11, 5, -1), 3, 48.02662346215053)
((-3, 4, 10, 10, 4, 2, 6, -5), 3, 48.04854977309647)
((-3, -3, 17, 5, -1, -4, -9, -12), 3, 48.07013055434709)
((-2, -5, 2, -7, -3, -1, -8, -4), 3, 48.09507198250228)
((1, 5, -12, -15, -6, 0, 5, 4), 3, 48.117635185642385)
((-7, -12, -44, -41, -10, -6, -4, -5), 3, 48.137868058972686)
((-2, -3, 2, -1, -7, -3, 9, -2), 3, 48.16019178608633)
((0, -1, 0, 2, -1, -6, -16, -4), 3, 48.18000386582728)
((1, -1, 5, 2, 2, 6, -1, -1), 3, 48.203395541982715)
((-6, -10, 8, -3, -7, -1, -8, -6), 3, 48.22816135438518)
((2, -1, 9, -2, -1, 4, 11, 3), 3, 48.24848374613489)
((1, 1, 28, -2, -4, 1, 24, 1), 3, 48.27045282065697)
((-2, 2, 0, 0, 9, 3, 12, 2), 3, 48.302499274444656)
((1, -4, -11, -13, -11, -3, 0, -2), 3, 48.32645657016733)
((-4, -9, 28, 3, -9, -4, -5, -3), 3, 48.35851100648923)
((0, 0, -1, 17, 6, 5, 8, 0), 3, 48.38182171694048)
((3, 5, 11, 12, 6, 5, 1, 2), 3, 48.41011409892298)
((0, 3, 14, -4, -1, -2, 0, -3), 3, 48.43524710789934)
((-2, -9, -11, -12, -7, 1, 4, -4), 3, 48.45915365751165)
((-1, 1, 0, 6, -1, -1, -4, -1), 3, 48.47879012149987)
((-1, -2, -13, -3, -4, -3, -5, -1), 3, 48.505309810705604)
((-2, -5, -32, 0, 3, 7, 0, -1), 3, 48.52676857321894)
((-1, 0, -12, 4, -1, -2, -16, 0), 3, 48.548292906549044)
((0, 0, -1, 0, 12, 1, 4, 1), 3, 48.56885876559231)
((-8, -16, 11, 2, -11, -3, 3, -3), 3, 48.59114771166402)
((3, 2, -4, -7, 7, 1, 1, -1), 3, 48.616539012640345)
((0, 0, 1, -6, -6, -2, 3, -2), 3, 48.63698114240328)
((-3, -7, -6, -2, -6, -1, 20, 5), 3, 48.658427360934276)
((-3, -5, -6, -20, -5, -2, 6, -2), 3, 48.67804386858696)
((2, -1, 6, 5, -2, 2, -5, -3), 3, 48.702836479497144)
((-2, -4, 1, -3, -4, -1, -6, -3), 3, 48.72509805688012)
((-2, -6, 11, -39, 2, -1, -6, -4), 3, 48.745180402422356)
((4, 5, 12, -7, 0, -1, 1, 1), 3, 48.7695373950368)
((-1, 2, 7, 6, 0, -1, -4, 0), 3, 48.79236744289209)
((-1, 0, -2, 5, 0, -2, -10, 1), 3, 48.81641368685317)
((0, -1, -11, 5, -1, -2, -7, -1), 3, 48.839918258849636)
((1, -2, -8, 20, 7, 5, 1, 2), 3, 48.86147167141152)
((-2, -1, 17, -13, 1, 1, -3, -2), 3, 48.883534255620134)
((-1, 2, -7, 0, 1, 5, -2, 0), 3, 48.91035100913487)
((-4, 0, -3, -3, -8, -6, -3, -1), 3, 48.93400667910041)
((-2, 3, 1, -16, -3, -3, -1, -2), 3, 48.95657501386965)
((17, 6, 21, 4, -2, -2, 1, 2), 3, 48.976502270175715)
((-12, 7, -4, -42, -5, -1, -1, -3), 3, 48.997701600327055)
((3, -29, 26, 0, -2, -9, -17, -34), 3, 49.0240103225571)
((60, 30, 31, 9, 0, 3, 5, 16), 3, 49.05054540665025)
((127, 72, 6, 10, 0, 3, 13, 56), 3, 49.070070685340475)
((-23, 21, -3, 4, 15, 20, 8, 10), 1, 49.190720418011104)
((-3, 4, 1, -1, -10, -6, 10, -5), 1, 49.21848253164932)
((-25, -20, -1, 5, 4, -5, 5, 5), 1, 49.24144600186221)
((20, 7, 1, -7, 0, -1, 0, 6), 1, 49.26369446508183)
((-29, -10, 13, 1, -1, 1, 1, -3), 1, 49.28794027239828)
((33, -9, -7, 1, -5, -6, -8, -7), 1, 49.316129451617)
((-7, 2, -1, -11, -8, -8, 8, 2), 1, 49.335330867490505)
((-3, -3, -2, -3, 1, -4, -3, 0), 1, 49.35644353012751)
((-15, -12, 3, -2, 6, 9, 1, 3), 1, 49.37603209891044)
((-8, -3, -2, 2, 4, 3, 1, 2), 1, 49.396962873803545)
((-13, -2, -5, -22, -6, -2, -4, -2), 1, 49.41768895371214)
((2, -4, -1, -3, -6, -5, -4, -1), 1, 49.440907294838894)
((-6, 0, -2, -2, -2, 1, 2, -3), 1, 49.46452647321945)
((1, -3, -1, 0, 0, 4, 1, 4), 1, 49.484743381481316)
((-43, -7, -3, 8, 0, -3, -2, -3), 1, 49.504556601584305)
((6, 1, 2, 2, 8, 11, 8, -2), 1, 49.535985549332345)
((2, 11, 2, 0, 9, -1, 2, 2), 1, 49.556862157028995)
((4, 4, -1, 1, -2, -3, -3, 5), 1, 49.5822899495903)
((11, -9, -3, 1, -1, -1, -2, 0), 1, 49.604183760218355)
((-16, 0, 0, -5, -6, -4, -4, 0), 1, 49.625673882687536)
((2, 4, -2, -6, -10, -4, -1, -1), 1, 49.653292880890895)
((-5, -1, 0, 1, -2, -3, -2, -8), 1, 49.674181462388866)
((23, 3, -2, -26, -6, -3, -2, -8), 1, 49.69745283035005)
((16, 5, 1, 2, -1, -5, -3, 2), 1, 49.71979480325619)
((14, 0, -1, -5, -5, -4, -3, -1), 1, 49.74556356406468)
((3, 2, 0, 6, 6, 1, 3, 5), 1, 49.768091986162844)
((-6, 1, 1, -10, -3, 2, -1, -1), 1, 49.79105545637574)
((-13, -2, -1, -2, 7, 4, 2, 3), 1, 49.81449787864153)
((11, 2, -1, 7, 2, -6, -1, 2), 1, 49.838251049560704)
((6, -13, -4, 0, -2, 1, -2, -2), 1, 49.86072017283327)
((-2, -3, 0, 9, 10, 7, -1, -7), 1, 49.88359355444573)
((-1, 2, 15, -8, -1, -7, -2, 4), 1, 49.90432818706955)
((-8, -5, -4, -1, -3, 2, -3, -4), 1, 49.92253919851935)
((-4, 2, 1, 3, -2, -3, 0, 1), 1, 49.95060521863876)
((-2, 4, 6, 9, 1, 1, 0, -2), 1, 49.97220196495782)
((3, 6, 3, 4, -1, -1, 1, 1), 1, 49.99623167366944)
((-6, -9, 8, -7, -6, -2, -1, 2), 1, 50.01946769040767)
((-47, -58, 12, -29, -2, 4, 5, -33), 1, 50.050508915065265)
((-3, 2, 66, -15, 1, -1, 9, -35), 1, 50.073592123291384)
((-28, 12, -17, 24, 4, 4, 17, 39), 1, 50.092975997089795)
((13, 21, -19, 45, 8, 1, -13, -15), 1, 50.11909370867969)
((11, 2, 123, 42, -5, -7, -5, 23), 1, 50.14451237834475)
((-5, 0, -39, 13, 1, -3, -13, -21), 1, 50.17032618345346)
((-7, -19, 22, -26, -1, 2, -10, -27), 1, 50.191227879114784)
((-23, -10, -83, -61, -6, 7, 11, -6), 3, 50.234712734251744)
((-5, -8, 50, -5, -3, 7, 6, -10), 2, 50.28765404152856)
((-27, -3, 42, 1, -2, -9, -7, -10), 2, 50.31599830998347)
((-10, -7, -13, -103, -13, -1, -1, -26), 2, 50.34620878090167)
((5, -1, 48, 5, -4, -4, -4, 15), 2, 50.3686357107791)
((5, 3, 56, 24, -2, -5, -4, 8), 2, 50.38878932894826)
((-1, 13, 51, 2, 4, 1, 0, -11), 2, 50.4148454609885)
((3, 0, -21, -40, -6, 1, -3, -3), 2, 50.43646216364309)
((-4, 1, 14, 2, 2, 8, 4, -6), 2, 50.52882293541731)
((-3, -5, -16, 2, 0, 0, 0, -12), 2, 50.55328655188163)
((7, -12, -74, -29, -7, -3, 1, 0), 2, 50.574199651163255)
((-22, 8, 54, 13, 3, 3, 1, -6), 2, 50.5952467429835)
((-14, 1, -5, 3, -2, -3, -1, -15), 2, 50.61667414554098)
((8, 5, 58, 26, 3, 2, -1, -2), 2, 50.637639701476026)
((-4, -2, 11, -7, -3, -2, -1, -5), 2, 50.661817657251646)
((1, 2, 13, 3, 3, 2, 2, 6), 2, 50.682909793372104)
((-8, -6, -100, -31, -2, 2, 1, -1), 2, 50.702820514428716)
((-3, -3, 19, -25, 0, 1, 0, -6), 2, 50.72478388714065)
((3, 1, 25, 11, -3, -3, -1, 10), 2, 50.74877938499135)
((1, 9, 17, -2, 1, -2, -1, 6), 2, 50.77340607322607)
((-7, 6, 36, 52, 2, 2, -1, -4), 2, 50.80132726736757)
((-1, -8, -71, -2, -7, -5, -2, -1), 2, 50.82122430407981)
((0, -5, -2, -14, -2, -4, -1, 2), 2, 50.84683170366096)
((1, -5, -7, -4, -3, -2, -2, 1), 2, 50.871576989546874)
((-5, -2, 62, 4, 1, 0, 1, -1), 2, 50.88929194351331)
((-4, -20, -42, -21, -12, 0, 0, 2), 2, 50.91052092307745)
((15, 0, -24, -6, 0, -2, -2, 0), 2, 50.93146766303899)
((-3, 4, 21, 9, 3, 1, 0, -1), 2, 50.952905328854754)
((-3, -3, -38, 3, 2, -1, -2, -3), 2, 50.97552840100147)
((1, 5, 13, 21, 4, 4, 4, -5), 2, 50.996321762269865)
((-32, -20, -92, -42, -8, -5, -6, -53), 2, 51.015337299132355)
((-5, -2, 6, 4, 1, 2, 3, -2), 2, 51.03734286523943)
((7, 7, 18, 6, -1, -5, -1, 13), 2, 51.060694058542765)
((0, 0, -24, -5, -3, -1, -1, 1), 2, 51.08124566306065)
((1, 4, 70, 17, 2, 0, -1, 2), 2, 51.09950228899169)
((-4, -9, -1, -4, -6, -5, -2, 1), 2, 51.12246575920457)
((-6, -13, -65, -20, -7, -1, -1, -2), 2, 51.14272771176665)
((0, -1, 3, -3, -1, -1, -3, -1), 2, 51.16681272803677)
((-2, -3, 40, 5, -2, -2, 0, -4), 2, 51.18866149436462)
((-1, 3, 50, 2, 0, 0, 0, 2), 2, 51.21302932041835)
((-1, 0, -2, 2, 1, 1, 0, -5), 2, 51.234980719328966)
((2, -2, -4, -2, 4, 1, -2, -2), 2, 51.255664035661404)
((5, 7, 26, -18, 3, 1, 1, 10), 2, 51.28528550959073)
((-2, -4, -18, 2, 0, 1, -1, -5), 2, 51.30962425641268)
((-4, 6, 40, 6, 0, -1, -1, -5), 2, 51.334976214898944)
((-4, -4, -37, -13, -2, -4, -1, -7), 2, 51.356348309897946)
((0, -3, 19, 6, -1, -1, 1, -4), 2, 51.382925587386225)
((0, -3, -27, -15, -5, -1, -2, -3), 2, 51.40409811902985)
((-4, -3, -9, -14, -2, 0, -1, -5), 2, 51.42373173211299)
((-2, 0, -49, 4, 0, 0, -1, 0), 2, 51.448496404153424)
((-1, 0, 0, 8, -2, -3, 0, -4), 2, 51.47893779838285)
((0, -12, -103, -17, -8, -4, -4, -1), 2, 51.501539203650985)
((3, -2, 9, -2, 2, 2, -1, 0), 2, 51.52034491389981)
((-2, 7, 61, 25, 3, 0, -2, -5), 2, 51.543746283132506)
((-1, -3, 12, -11, -6, -4, -1, 0), 2, 51.56326814073664)
((1, 3, 3, 13, 0, -1, -2, -3), 2, 51.59399804655984)
((-3, -6, -52, -13, -2, -1, -2, -2), 2, 51.621435727200314)
((1, 6, 7, 1, 3, 1, 2, -3), 2, 51.63987766196134)
((0, 0, 17, 6, -4, 0, 0, 2), 2, 51.658731837596484)
((0, 10, 47, 10, 4, 2, 1, -4), 2, 51.68455761650651)
((-5, -12, -41, -28, -10, -6, -5, 11), 2, 51.70447175864922)
((12, 3, 10, 0, 2, 0, 0, 10), 2, 51.724260460968544)
((1, 0, -23, 6, 1, 4, 0, 1), 2, 51.746710768267604)
((-4, -4, -52, 10, 0, -1, -1, -2), 2, 51.768501946312895)
((-10, -14, -65, -26, -6, -4, -3, -7), 2, 51.7931765297529)
((1, 0, -2, -6, 0, -3, -2, -1), 2, 51.81449559791747)
((3, 6, 48, 2, 9, 3, 5, 3), 2, 51.834574522373615)
((-2, -3, -19, -21, -9, -4, -2, -1), 2, 51.854446471121186)
((-10, -17, 43, -19, -13, -8, -3, -4), 2, 51.877602092336254)
((2, 1, 12, 6, 2, 3, 3, 5), 2, 51.90113232247842)
((-1, -5, -74, -29, -4, -3, -4, 2), 2, 51.92289100020584)
((0, 6, 23, 27, 4, 3, 1, -3), 2, 51.94304803946109)
((-5, -12, -87, -40, -3, -4, -2, -4), 2, 51.9655040485703)
((1, 4, 23, 21, 4, 1, 0, 0), 2, 51.99057661835903)
((-7, -3, 62, 9, 0, -1, -3, 10), 2, 52.01364272115468)
((5, 4, 11, -2, -2, -2, 1, -2), 2, 52.03522977439648)
((3, 4, -14, -1, -1, -1, 1, -3), 2, 52.057752494684486)
((-4, -13, -74, -14, -11, -7, -2, -3), 2, 52.08364840585941)
((1, 1, 10, 3, 0, 2, 2, -3), 2, 52.11151429244242)
((-3, 4, 26, 4, 1, 3, 0, 6), 2, 52.13349477058482)
((-1, -1, 9, -3, 0, -3, 0, -2), 2, 52.15371795083785)
((0, 2, 8, 6, 4, 3, 2, -9), 2, 52.17400613172664)
((4, 4, -7, -30, -4, 0, 3, 5), 2, 52.20234583873342)
((0, 5, 17, 10, -1, 0, 0, -2), 2, 52.22244528970612)
((-3, -1, -12, -9, -2, -4, 1, 5), 2, 52.24325119495686)
((1, -3, -28, -12, 1, -2, -2, -1), 2, 52.26242353159858)
((1, 2, 52, 18, 2, 1, 0, 0), 2, 52.286534776195396)
((1, 2, 1, 3, 0, 0, -2, -5), 2, 52.313072141012604)
((-3, 0, 67, 6, 1, -5, -3, -1), 2, 52.33890134100873)
((-3, -9, -27, -18, -3, -3, -2, -1), 2, 52.35874078943842)
((1, 2, 16, 21, 0, 1, -1, -7), 2, 52.379513624190274)
((-3, -3, 12, -5, -4, -4, -3, -4), 2, 52.409619181801645)
((-1, -1, -17, -2, -2, 1, -1, -1), 2, 52.431084216306154)
((1, 2, -2, 12, 2, 1, 2, -2), 2, 52.45188898119486)
((2, 4, 29, -4, 2, -2, -1, 1), 2, 52.47674089093064)
((-4, -3, -14, 0, 1, 0, 0, -5), 2, 52.50311803488253)
((-1, -4, 8, -3, -2, 1, 1, -2), 2, 52.52850648495378)
((-2, 4, -23, -41, -3, -2, 1, -1), 2, 52.552918785126714)
((5, 3, 15, 19, 4, 2, 1, 3), 2, 52.57331701095147)
((2, 0, -1, 12, 7, 4, 6, -4), 2, 52.603509806258195)
((-2, 1, 30, 11, -1, -2, -2, -5), 2, 52.62727324043564)
((-5, -2, -4, 16, -5, -4, -1, -3), 2, 52.64697299451657)
((1, 3, 17, 6, -1, 0, 0, 2), 2, 52.6693109761556)
((-8, -7, -20, -16, 0, -2, -3, -10), 2, 52.68895086122991)
((-1, -3, -42, 8, 1, 1, -1, 0), 2, 52.711997577871045)
((-4, -12, 19, -26, -7, -1, 1, -2), 2, 52.7322772060446)
((3, 9, 32, 22, 6, 3, 3, -1), 2, 52.75217196203279)
((-1, -3, -14, -6, 1, 1, -1, -1), 2, 52.77620566201152)
((6, -1, 28, 18, 2, 0, -2, 6), 2, 52.80249670863009)
((-1, 1, -19, -1, 0, -4, -1, 0), 2, 52.82844393609639)
((-4, -4, -4, -4, -3, -5, -5, -2), 2, 52.852199387739624)
((-8, -19, -86, -27, -9, -4, -4, -6), 2, 52.88229810317882)
((5, 10, 24, 10, 7, 3, 0, 3), 2, 52.90525530140054)
((1, 0, -26, -10, 2, 4, 2, 0), 2, 52.92758872159144)
((-1, -3, -28, -4, -2, -5, -1, 0), 2, 52.95048776134959)
((-17, 7, 8, 40, 8, 5, 0, -4), 2, 52.97051080806624)
((-4, -4, 52, -14, -7, -2, 1, -2), 2, 52.99198610582902)
((5, -2, -10, 1, -1, 2, 1, -2), 2, 53.018315924756635)
((0, -3, -20, -11, 0, -1, -1, 0), 2, 53.0404549132213)
((-10, 0, -44, -22, 1, -1, 1, -10), 2, 53.06285219368593)
((5, 7, 18, 11, 5, 2, 1, 1), 2, 53.08494955893647)
((4, 1, 6, 11, 0, -1, -2, -1), 2, 53.10540822394886)
((-10, 1, 17, 22, 0, 2, -1, 0), 2, 53.129321615733346)
((-4, -15, -53, -18, -4, -2, -3, -2), 2, 53.152189295535656)
((-2, -4, -4, 0, -4, -3, 1, 0), 2, 53.17243870411539)
((-3, 0, 13, 8, 1, -1, -1, -3), 2, 53.194845677657284)
((-11, -1, 63, -18, -6, -2, -3, -1), 2, 53.21964855182575)
((6, 2, 13, 8, 3, 2, 3, 0), 2, 53.242347458047504)
((5, 8, 66, 11, 2, 2, 1, 0), 2, 53.26550821089171)
((-2, -9, -21, -3, -11, -6, -4, -1), 2, 53.286438415603804)
((3, 2, 21, 8, 1, 0, -1, 1), 2, 53.32602551331971)
((-7, -21, 22, -44, -14, -6, -2, -3), 2, 53.35098005563826)
((-3, -4, -24, -2, 1, 1, -1, -1), 2, 53.376627367890485)
((1, 8, 72, 22, 3, 3, -1, 2), 2, 53.39938500275682)
((4, 9, 29, 42, 1, 1, 2, 0), 2, 53.42157587769389)
((1, -2, -9, -6, -1, -2, -1, -1), 2, 53.44384942887819)
((0, 3, 1, -10, -1, -4, -3, 1), 2, 53.464324058959)
((-22, -31, -105, -66, -14, -8, -6, -11), 2, 53.484122454355585)
((-2, -5, -5, -2, -1, 0, -3, -3), 2, 53.50461704077193)
((-1, -6, -61, -26, -5, -4, -1, 1), 2, 53.531314056273445)
((1, 3, 19, 17, 0, -1, 1, 0), 2, 53.55426327196095)
((2, 3, 15, 1, 1, 2, 1, 1), 2, 53.57604076566187)
((-19, 4, 96, 5, 5, 1, 1, -5), 2, 53.59686605706714)
((0, 2, 51, -19, 0, 3, 0, -1), 2, 53.61686344563809)
((2, -3, -21, -8, -2, 0, -1, 1), 2, 53.64235509847311)
((-1, -11, -124, -35, -4, -4, -4, -1), 2, 53.662638147732764)
((-3, -3, -9, -2, -3, 0, 0, 0), 2, 53.68339045596806)
((0, -3, 4, 5, -1, -2, 0, -1), 2, 53.70972654688684)
((3, 3, 32, 18, 3, 2, 3, -2), 2, 53.735353902803524)
((0, -2, -53, -5, -4, -4, -1, -1), 2, 53.7586172882305)
((-1, -1, 3, -5, -2, 0, 0, -1), 2, 53.782004973118816)
((-2, 3, 26, 8, 2, -1, -1, -1), 2, 53.80430304208677)
((2, 4, 77, 32, 6, -2, -1, -1), 2, 53.82979754582687)
((-1, 4, 15, -3, 0, -1, -3, 0), 2, 53.85468309624257)
((-6, -9, -42, -27, -6, -4, 0, -4), 2, 53.87530483302534)
((-3, -3, -16, -8, -3, 0, -2, 0), 2, 53.89593854360944)
((18, -1, 14, -5, -2, -3, -4, 1), 2, 53.91847836932791)
((-3, 1, -49, -24, -1, 0, 0, -3), 2, 53.94740308205646)
((1, -1, -46, 0, 2, -1, 0, 1), 2, 53.967051519846)
((-10, -2, 24, -4, -3, 2, 4, 1), 2, 53.985590385379645)
((2, 1, 32, 25, 1, 1, 1, 0), 2, 54.0091388613143)
((2, 1, 27, 26, 3, 0, -3, -9), 2, 54.03040148155835)
((-5, -1, -36, -5, -2, -1, -2, -1), 2, 54.055407910349295)
((3, -2, -42, 6, 0, 0, -1, 1), 2, 54.07939029403665)
((-1, 3, 13, 15, -1, -1, -2, -1), 2, 54.13273300874829)
((-2, -4, -45, -5, -2, 0, -3, -1), 2, 54.16603158004572)
((6, 4, 47, 10, 3, 0, 2, 1), 2, 54.20168899020372)
((3, 9, 39, 41, 4, 4, 3, -1), 2, 54.233676715346824)
((4, 8, 35, -1, 2, 0, 0, 1), 2, 54.27829337979929)
((-1, -2, -25, -22, -4, -2, 0, 0), 2, 54.306440365622876)
((-13, -1, 30, 7, 2, 1, -1, 13), 2, 54.34312182088448)
((-13, -1, 30, 7, 2, 1, -1, 13), 2, 54.35061856087452)
((9, -2, -3, -6, -1, 1, -1, -5), 2, 54.37743246348418)
((7, 5, 49, 13, 0, 0, 2, -1), 2, 54.41338864849424)
((1, -5, -14, 4, -3, -2, 2, -3), 2, 54.462787421122584)
((2, 4, -7, -19, 1, 0, -1, 2), 2, 54.50018844482558)
((-8, 0, -9, -7, 3, 1, 0, -3), 2, 54.56261813437912)
((5, 5, 19, 21, 4, 1, 1, 2), 2, 54.6198397905383)
((2, 4, 41, 13, 2, 0, -1, -4), 2, 54.6576638885547)
((-1, 1, 1, 4, 2, 0, -2, -5), 2, 54.69677602548481)
((-2, -6, -32, -10, -3, -1, 0, -1), 2, 54.72897300706055)
((1, 1, 14, 10, 2, 2, 1, 6), 2, 54.758327636274686)
((2, 4, 22, 7, 3, 0, 0, 0), 2, 54.81041994401963)
((15, 6, 22, 10, 4, 0, 0, 11), 2, 54.84558186687528)
((2, -3, 16, -10, 0, -1, -1, 4), 2, 54.87402477664584)
((-2, -1, 20, 10, -1, -1, -3, 0), 2, 54.89575095405539)
((-2, -7, -70, -4, -1, -3, -3, -1), 2, 54.91857187901443)
((0, 3, 21, 11, 2, 1, 0, -1), 2, 54.946600267186824)
((-2, 0, -29, -14, -5, -4, -2, 0), 2, 54.97499870283819)
((-2, -4, -20, -1, -1, -3, -3, -2), 2, 54.99883455000459)
((2, 5, 49, 8, 1, -2, 0, 2), 2, 55.024211026274514)
((0, 1, 10, 14, 0, 0, 2, -2), 2, 55.049593204354586)
((1, 4, 7, 3, 1, -1, -1, 0), 2, 55.076009120615524)
((-1, 1, 32, -8, -2, 0, 0, 0), 2, 55.10100585632921)
((-2, -3, -17, 2, 6, 0, -2, -1), 2, 55.13022307191864)
((-1, 0, 17, 4, -2, -1, 1, -2), 2, 55.15393975125283)
((-1, 3, 52, 0, -4, -1, -4, 0), 2, 55.177720861041756)
((-4, -6, 40, 2, -9, -5, -3, -4), 2, 55.20013239603177)
((-13, 2, -30, -13, 3, 2, 5, 0), 2, 55.22253537830655)
((-2, -5, 14, 16, 11, -3, -5, -4), 2, 55.244857965058166)
((1, 0, 17, 3, -3, -1, -1, 1), 2, 55.27726192234248)
((-14, 1, 0, 3, -1, -1, -2, -5), 2, 55.309016443450304)
((-12, -7, -9, -1, -5, -3, -3, -6), 2, 55.34427643744059)
((-70, -7, -17, 12, 2, -3, -6, -10), 2, 55.37564380563898)
((-33, 10, -7, -8, -6, -14, -29, -63), 2, 55.39850920471722)
((22, 51, 43, 18, 17, 19, 19, 62), 2, 55.42218939246643)
((114, 21, -2, 7, 8, 8, 11, 40), 2, 55.44642721724866)
((99, 18, -10, -12, -5, -1, -1, -5), 1, 55.500234059306806)
((-113, -47, -32, -4, 6, 0, 1, -19), 1, 55.522363354694214)
((8, -4, -17, 0, 0, -1, 1, 9), 1, 55.54552752862451)
((22, -2, -5, -12, -9, -5, -6, 3), 1, 55.57212647299138)
((-3, -25, -4, -5, -4, -4, -4, 2), 1, 55.59655929968087)
((3, 6, -3, 3, -2, 2, -1, 0), 1, 55.62059756110772)
((17, 2, -2, -8, -2, -2, -2, 2), 1, 55.64148329170062)
((17, 14, 0, -17, 0, 2, 6, 5), 1, 55.67332105923668)
((42, -1, 0, -3, -2, -2, -2, 0), 1, 55.86975469102176)
((-10, 11, 2, -2, -3, 1, 0, 0), 1, 55.89312698102267)
((11, 9, -3, -9, -8, -1, -4, 3), 1, 55.91357424241474)
((4, -6, -3, -12, -7, -7, -3, -1), 1, 55.935292437290066)
((33, 5, -3, -5, -2, -6, -5, -2), 1, 55.957443399556055)
((-14, 0, 0, 0, 1, 1, 1, 0), 1, 55.986400042421465)
((-25, -11, -1, 2, 2, -5, -3, 4), 1, 56.006877523407354)
((15, -1, -1, 4, 3, 0, 1, 2), 1, 56.030071346750454)
((29, -8, -1, -5, -5, 0, -3, -2), 1, 56.05318420438937)
((8, 1, -3, -13, -8, -5, -6, 3), 1, 56.07602736640801)
((-2, -2, -1, 4, 10, 3, -3, -5), 1, 56.09989400334924)
((-7, -13, -3, 4, 0, -2, -3, -7), 1, 56.12332730271879)
((5, -11, -1, -9, -6, -3, -1, -2), 1, 56.146863804852124)
((-75, -4, 4, 9, 4, 4, 2, -2), 1, 56.17063579174481)
((47, 8, -5, -3, 1, -2, 0, 1), 1, 56.19695990886227)
((7, 2, 0, -6, -2, -1, -1, 1), 1, 56.222350069476555)
((-12, -3, 0, -4, -1, 0, 2, -2), 1, 56.24477129754383)
((-37, -16, -2, 15, 9, 0, 0, 0), 1, 56.27051896165476)
((-5, -12, -3, -2, -5, -1, -1, -5), 1, 56.300090829835746)
((-15, -24, -6, 2, 1, -2, -4, -10), 1, 56.331203327120264)
((-3, -8, -4, -2, -1, -3, -1, -8), 1, 56.36179410877571)
((-31, -6, -2, -6, -4, -4, -4, -4), 1, 56.38969534658168)
((11, -13, -3, -3, -3, -1, -3, -3), 1, 56.40878215607109)
((19, 5, 0, 1, -2, 1, 1, 5), 1, 56.43007157482286)
((2, 2, -1, -7, -8, -3, -2, 0), 1, 56.45523993502217)
((4, 6, -1, -9, -6, -1, 1, 1), 1, 56.475314868211214)
((-4, 2, 0, 0, -1, 2, 1, 1), 1, 56.50733737439625)
((-25, -6, 0, -4, -3, -2, -3, -5), 1, 56.52879556672857)
((-1, -1, 1, 15, 7, 2, 6, -4), 1, 56.557345670530026)
((-17, -3, -1, -3, -5, -4, -1, 1), 1, 56.57995220742729)
((-2, -3, -2, 0, 1, -2, -5, -4), 1, 56.60817502732593)
((7, -5, -2, -4, -5, -1, 0, -2), 1, 56.63009791718577)
((-19, -15, -3, -9, -7, -15, -14, -6), 1, 56.65540369100979)
((12, 9, 2, 10, 5, 15, 6, 6), 1, 56.67738074806609)
((-4, -2, 1, 10, -1, 0, -8, -3), 1, 56.7013505877711)
((3, -4, 2, 7, 9, -2, -3, 1), 1, 56.72381115832844)
((-1, -1, -1, -3, -7, 5, 5, 0), 1, 56.74526079794553)
((0, -1, 3, -7, -1, -1, -3, 0), 1, 56.76614538817638)
((-1, 0, 3, -7, -2, 7, 3, -1), 1, 56.79404263471524)
((0, -1, -4, -3, 1, 0, 1, -1), 1, 56.81600657760819)
((2, 8, 5, -5, 4, 6, 22, 0), 1, 56.83796652923404)
((-1, -2, 2, -20, -6, -2, -2, -2), 1, 56.85728597257771)
((2, 2, -6, -5, 4, 0, 4, 1), 1, 56.88122616286993)
((3, -1, 10, 5, 2, 7, 3, 3), 1, 56.90970841513055)
((-2, 0, -2, -4, -3, -3, -13, -1), 1, 56.92932606314527)
((-1, -11, -67, -50, -6, -9, -8, 14), 1, 56.956239177251604)
((-4, 1, 47, -1, -2, 0, -12, -18), 1, 56.97859483450211)
((-47, -10, -14, -28, -9, -4, 2, -1), 1, 57.0110347131904)
((-7, -14, -76, -14, -12, -3, -5, -8), 3, 57.29697764149184)
((3, 4, 15, 22, 6, 3, 7, 0), 3, 57.33080248986646)
((3, 2, -37, -2, -7, -1, -4, -4), 3, 57.358684911698916)
((-6, -2, 6, 4, -3, 0, 0, -3), 3, 57.38058841540424)
((-15, -5, -11, 6, 0, 1, 9, -6), 3, 57.40819429944425)
((-1, -3, -50, -1, -5, -1, -9, -2), 3, 57.431260972420915)
((-1, -2, 12, -23, -7, -5, -9, -7), 3, 57.45587283594923)
((3, 2, 13, -2, -3, -2, 3, 0), 3, 57.47727914180915)
((-12, -3, 16, 13, 2, -2, -1, -2), 3, 57.499797300649035)
((-1, 2, 15, -3, -1, 0, -4, -2), 3, 57.52867354799128)
((6, -1, 4, 6, -5, 1, 12, 2), 3, 57.54982897420444)
((2, 3, 20, -4, 3, 0, -7, 0), 3, 57.57095190009972)
((-1, -2, -6, -7, -2, 0, -2, -3), 3, 57.59262048922672)
((1, -3, 8, -28, -6, -3, -25, 0), 3, 57.61427881509543)
((2, 7, 16, 14, 4, 4, 5, 2), 3, 57.63806961796161)
((0, -4, -13, -5, 0, -1, 6, 1), 3, 57.65926267612179)
((-1, 6, 21, 8, 3, 1, 0, -2), 3, 57.68100823968585)
((5, 0, 2, -17, 5, 2, 1, -3), 3, 57.703927235779545)
((-1, -6, -18, -3, -11, -7, -5, -4), 3, 57.72970397912225)
((-4, -4, -24, -14, -4, -4, 0, -4), 3, 57.75496071737895)
((-2, 0, -2, 5, -4, -2, 1, 0), 3, 57.778157961808134)
((0, 0, 0, -3, 0, 1, -4, -1), 3, 57.80541603542877)
((-12, -24, -46, -44, -12, -8, -7, -7), 3, 57.829341971195596)
((5, 4, 11, 10, 5, 1, -2, 2), 3, 57.855408936675126)
((3, 0, 2, -5, -8, -5, 0, 1), 3, 57.8785423208306)
((-4, -2, 2, 8, 3, 0, 0, -4), 3, 57.89682232418326)
((0, 0, 12, 10, 19, 7, 3, 0), 3, 62.82425823726258)
((4, 0, 20, 7, 6, -4, -1, -2), 3, 62.85540380504599)
((-1, -3, 4, 9, -3, 0, 0, 0), 3, 63.741832299500125)
((-1, -2, 7, -6, -8, -7, -8, -3), 3, 63.7650626144282)
((-4, -7, -5, -9, -4, -2, -5, -9), 3, 63.789790224702635)
((-1, 6, -5, 8, 0, 0, 1, 1), 3, 63.80984463137512)
((0, -4, -3, 2, 3, 3, -7, -1), 3, 63.83245059809138)
((-1, -5, -1, -3, -3, -3, -1, 2), 3, 63.85390080788948)
((-2, -1, -2, -6, -1, 1, 0, 1), 3, 63.8811138372099)
((-2, 4, -4, 2, -5, -1, 8, 1), 3, 63.90154570371456)
((-2, 1, -1, -1, -2, -1, -4, -7), 3, 63.92711490116768)
((1, -1, -3, -3, -1, -1, 3, 0), 3, 63.94867800680682)
((-1, -3, 3, 0, -4, -2, -3, 4), 2, 63.974150273487325)
((1, 0, -2, 0, -2, -1, -1, 2), 2, 63.998303141298265)
((-1, 1, 4, 2, -3, 0, 1, 7), 2, 64.01954751574982)
((-3, 7, -1, -2, 2, 1, 4, 0), 2, 64.55331677147544)
((-1, -1, -27, -3, 2, 3, 1, 9), 2, 67.84585498358163)
((-5, -6, -18, -9, -6, -6, -3, 2), 3, 68.00365600067053)
((-3, -36, -31, -29, -10, 2, 2, -4), 3, 68.0244926956961)
((-3, 28, 19, 5, 8, 1, 2, 4), 3, 68.04544627782983)
((-1, -2, 6, 5, 9, 3, 2, 5), 3, 68.07580841689811)
((-1, 15, -43, -19, 0, 0, -2, 4), 3, 68.09710353746004)
((-2, 62, 10, 4, 0, -1, -1, 2), 3, 68.12167491813626)
((-2, 39, 7, 10, -7, -1, 2, 2), 3, 68.14277902805804)
((-1, -5, -14, -7, -1, -2, -5, -1), 3, 68.30473210330084)
((-10, -3, -5, 3, -1, 0, -1, -9), 3, 68.33783282178594)
((-1, 1, 3, -15, -2, 2, 1, -2), 3, 68.35913820560613)
((0, 3, 6, -1, -4, 0, -1, -3), 3, 68.38676746706777)
((-2, -3, -2, 1, 3, 2, 0, -33), 3, 68.40859969814618)
((-3, -2, 17, 1, -6, -3, -2, -1), 3, 68.43358845132565)
((2, -2, 4, 4, -1, 0, 0, 6), 3, 68.45875795188698)
((-2, -1, 11, -2, 12, 5, 1, -4), 3, 68.48596470921623)
((-3, -15, 4, -3, 0, -2, -2, -19), 3, 68.50770343060812)
((-2, -6, -9, -16, -4, -3, -3, 2), 3, 68.52739976360296)
((1, 2, -12, 7, -1, 0, 2, 4), 3, 68.54913335336569)
((-1, -1, -2, 5, -7, -2, -1, -5), 3, 68.577529508293)
((2, -1, 9, 3, -3, -1, -1, -3), 3, 68.59907265759661)
((0, -5, -6, -2, -3, -1, 0, 5), 3, 68.62138156000385)
((3, 0, 11, 5, -3, -1, 0, 0), 3, 68.64283462070703)
((-5, -23, -7, -7, -12, -6, -3, 3), 3, 68.66271911343695)
((1, -7, -2, -3, 7, 5, 4, -5), 3, 68.6931798938209)
((-2, -13, 9, 0, -1, 2, 0, 0), 3, 68.71344754819313)
((-2, -8, -1, -5, 0, 5, -1, -3), 3, 68.7336610353689)
((0, 1, 1, -6, -1, 1, -1, -3), 3, 68.75487462004563)
((-1, 2, 15, -9, 0, -1, 0, 0), 3, 68.77522438048408)
((-1, 5, 11, 11, -1, -3, -3, 0), 3, 68.80433212131855)
((0, -4, 14, 0, 3, 0, 2, 1), 3, 68.82428617613233)
((0, 3, 7, -3, 2, 1, -3, -1), 3, 68.84513826604532)
((-3, -3, 3, -3, -5, -2, 0, -2), 3, 68.86722422767556)
((-5, -6, -8, -42, -8, -4, -4, -6), 3, 68.89522125589211)
((0, -12, 10, 15, 3, -3, 1, 4), 3, 68.91719717258638)
((-1, 1, 6, 0, -5, -2, -4, 1), 3, 68.9394604605124)
((1, 0, -8, -2, 2, 3, -1, 1), 3, 68.96502110525029)
((1, 8, 5, 13, 1, 0, 0, 0), 3, 68.98891739160432)
((1, 3, -11, 0, 3, 1, -3, 1), 3, 69.00855271523051)
((0, -4, 8, -5, -7, -4, -8, -10), 3, 69.02856264778379)
((0, -5, 2, -2, 2, -1, -1, 6), 3, 69.04924026230607)
((0, -1, -12, 4, 7, 3, 3, 1), 3, 69.06860760085505)
((-4, -7, 0, -18, -6, -4, -4, -4), 3, 69.09013934653835)
((-2, 2, -30, -2, 0, -1, 0, -3), 3, 69.11248759143565)
((1, -2, 6, -5, -1, -3, 1, 4), 3, 69.13383973009911)
((1, 8, 11, 1, -1, 4, 2, 2), 3, 69.15368944178708)
((-2, 4, -1, 6, -6, -3, -1, -1), 3, 69.17492982497153)
((2, 6, 2, 3, 2, 0, -1, -2), 3, 69.20164622662757)
((1, -2, -3, -3, 0, -1, -3, -4), 3, 69.22426017587803)
((-1, -3, -18, -6, -4, -1, -2, 3), 3, 69.25075990874824)
((1, -1, 15, -2, 1, 0, 0, -1), 3, 69.27261437688622)
((-2, -2, -4, 2, 1, -2, -2, -2), 3, 69.30090447814467)
((-3, -8, -40, -28, -8, -2, -2, -3), 3, 69.33637657947268)
((-1, 10, -72, 14, -3, -1, -5, -3), 3, 69.3624281500648)
((9, 3, 5, 7, 10, 5, -1, 0), 3, 69.38761190515153)
((27, 10, 11, 16, -5, 7, 14, 14), 3, 69.41107371357185)
((-7, -15, 31, -49, -7, -4, -8, -8), 3, 69.432340325083)
((77, 40, 36, 24, 7, 25, 11, 14), 3, 69.45106963107578)
((-1, -6, 2, 31, -5, -2, -5, -17), 1, 69.51859844944974)
((-71, -19, 0, 0, -5, -6, -6, -10), 1, 69.53932795044443)
((-22, 9, -14, 5, 2, -5, -13, -12), 1, 69.55756918148805)
((-6, 3, 8, 16, 25, 8, 6, -9), 1, 69.58246613552404)
((29, 2, 4, -9, -2, -3, -1, 12), 1, 69.6064673351849)
((10, 17, 3, 5, 1, -3, -3, -6), 1, 69.62830070662534)
((1, -16, -2, 12, 4, -5, -6, -3), 1, 69.65427188169429)
((-13, -16, 0, 1, -6, 2, -5, -2), 1, 69.67574889000011)
((5, 11, 0, -7, 6, 0, -3, 10), 1, 69.70595822055628)
((-15, -14, 0, -19, -10, -4, -2, -1), 1, 69.72796150593929)
((-5, 10, 0, 0, 6, 5, -1, 1), 1, 69.75412711273448)
((16, -2, -3, 0, -5, -5, -4, 2), 1, 69.77699308199374)
((-2, -24, 2, 10, -8, -3, -1, 4), 1, 69.80081809572084)
((12, 7, 0, 4, 0, 2, -2, -4), 1, 69.8233277018455)
((7, 13, 7, 7, 4, -1, 6, -1), 1, 69.84401900071215)
((-23, 6, 3, -10, 3, 2, 2, -1), 1, 69.86459854409979)
((12, -2, -2, -18, -5, -2, -3, 1), 1, 69.88563822356683)
((-66, -9, 0, 1, 2, -3, -4, -5), 1, 69.91077237290523)
((10, 20, 0, -1, -5, -3, -2, 3), 1, 69.9313051614496)
((41, -10, -2, -11, -13, -5, 2, -3), 1, 69.9527696257731)
((24, -3, -1, 5, -7, -3, -1, 1), 1, 69.9734814511563)
((-4, 0, -1, 2, 2, -2, -2, 4), 1, 69.99288414092823)
((8, -1, 0, 5, 2, 2, -1, 1), 1, 70.01851548811202)
((-51, -2, 2, 1, 7, 0, 4, 7), 1, 70.03986363550837)
((19, 18, 4, 15, 4, -2, -4, -1), 1, 70.06091015714759)
((17, 0, 3, 2, 13, 5, 4, 1), 1, 70.08562978488781)
((-26, -22, -1, 5, 4, 2, 4, -3), 1, 70.11464629675983)
((-70, -26, 0, -9, 5, 2, 0, -5), 1, 70.14020751167874)
((-1, 2, -2, 6, 1, 0, -6, -2), 1, 70.15945853330057)
((-58, -10, -2, -5, -2, 3, 3, -2), 1, 70.18416504687744)
((22, -8, 2, 4, 2, -1, -1, 1), 1, 70.20753790705935)
((25, 5, -1, -3, -4, -1, 0, 0), 1, 70.23267661784587)
((-2, -22, -5, -2, -5, -3, -4, -9), 1, 70.25375221871687)
((15, 7, 0, -5, -7, -1, 5, 3), 1, 70.27546699250611)
((3, 3, 1, 2, -2, -1, 0, 2), 1, 70.29920134745177)
((-53, 11, 0, 6, 1, 0, 1, 6), 1, 70.33079450733224)
((-19, -10, -2, 1, 2, 1, -1, 2), 1, 70.3518461606006)
((16, -5, -2, 1, 3, 1, -4, 2), 1, 70.37432440676942)
((0, 0, 0, -1, -1, -1, 4, 1), 1, 70.397091164532)
((9, -5, -1, 2, 3, -2, 0, -3), 1, 70.42101025812664)
((9, -5, -1, 2, 3, -2, 0, -3), 1, 70.44138510652976)
((6, -2, 17, 13, 0, 4, 1, 4), 1, 70.46869734734686)
((-3, -6, -73, -5, -1, 0, 0, -5), 1, 70.48959562192209)
((6, -7, -20, 11, -5, -8, -6, 10), 1, 70.51683373920719)
((39, 9, 53, 50, 18, 5, -46, -31), 1, 70.53962957620156)
((31, -4, -46, -46, -6, -4, -15, 45), 1, 70.56403389384027)
((-20, 8, -32, 27, 7, 4, 5, -13), 1, 70.58420005599177)
((-11, 4, 63, 48, 7, -4, 14, -23), 1, 70.60638408875666)
((-9, -2, 8, -1, 1, 1, -7, -16), 1, 70.62807776584832)
((2, 5, 16, -3, 2, 0, -5, 10), 1, 70.64830151628237)
((3, 8, 22, 43, 17, 8, 1, 5), 1, 70.66997865812459)
((0, -3, 10, -15, -2, 1, 7, -4), 1, 70.68898735281489)
((-2, 4, 50, 0, 0, 0, -4, -2), 1, 70.71133958897931)
((42, 0, -1, 44, 4, 3, 7, 47), 2, 70.87569312629681)
((-10, 7, 32, 20, -3, -2, -4, 13), 2, 70.90458077725935)
((-2, -7, -4, 27, -1, -1, 2, 1), 2, 70.93449646459261)
((4, 3, 14, -2, -1, 1, 4, 23), 2, 70.9567181293045)
((-17, -18, -30, 0, -5, -3, -5, -2), 2, 70.98134880880633)
((-4, -3, 24, -8, 3, 3, 2, 3), 2, 71.0029940205117)
((2, -2, 40, 27, 0, 1, 1, -1), 2, 71.02634236290996)
((-1, -8, -26, 2, -3, -4, -4, -5), 2, 71.05319845891475)
((1, 1, 25, -3, -3, -5, -3, 0), 2, 71.07523082352955)
((-1, 2, 29, 20, 6, 7, 0, -2), 2, 71.09557146107174)
((0, -5, 44, -10, -8, -3, -1, -1), 2, 71.1177771607152)
((-5, -12, -19, -6, -5, -3, -3, -6), 2, 71.14492975084801)
((2, 1, -45, -10, 0, -3, -5, -1), 2, 71.16653847096838)
((0, -3, -4, 1, -2, 0, 1, 0), 2, 71.18899961170673)
((2, -2, 24, -15, -2, -1, -2, -4), 2, 71.21168825467021)
((-1, -3, 1, -4, 0, -2, 2, -1), 2, 71.23536616169535)
((-1, 0, 4, -1, -4, -4, -1, -4), 2, 71.2639641607021)
((-3, -9, -86, -13, -5, -1, -1, -5), 2, 71.28515892940531)
((0, -3, 13, -4, -7, -5, -6, 7), 2, 71.31169458367948)
((-3, -8, 16, -16, -5, -2, 0, -6), 2, 71.35215120744382)
((-5, -4, -5, -8, -3, -1, -2, -4), 2, 71.37276040024426)
((3, 2, -6, -12, -5, -3, -3, 1), 2, 71.39754901988735)
((0, 1, 45, 13, 1, 1, 4, 0), 2, 71.42084832671829)
((-1, -3, 10, -2, 0, -1, -1, -1), 2, 71.4436755236685)
((4, 0, 32, 11, -1, 0, 1, 0), 2, 71.47016157219433)
((1, 2, -13, -11, -4, -3, -2, 0), 2, 71.49001926641651)
((2, -2, 17, 7, 1, 0, -2, -1), 2, 71.51320681776843)
((-1, 0, 21, 3, 3, 0, -2, 2), 2, 71.53689156696576)
((1, 10, 26, 14, 8, 3, 1, 0), 2, 71.55913489855624)
((-5, -4, -18, -6, -5, -2, -1, -3), 2, 71.58272613806706)
((0, 1, 14, 17, 9, 0, -1, -1), 2, 71.60337980498669)
((1, 2, -10, 0, -5, -5, -1, 1), 2, 71.62921470679296)
((-2, -5, -44, -7, -2, -1, -2, 0), 2, 71.65665979978664)
((-1, -5, -3, -12, -10, -4, -2, -1), 2, 71.68259277272756)
((-3, 2, 23, 11, 1, 1, 0, -1), 2, 71.70568966529804)
((0, 3, 15, -2, -2, 4, 3, -1), 2, 71.73040644213319)
((0, -2, 1, 5, 1, -2, -2, -1), 2, 71.75437856256225)
((0, -3, -4, -7, -2, 2, 2, -2), 2, 71.78383468399713)
((1, -4, -4, -10, 13, 2, -2, 0), 2, 71.80816715882791)
((0, 1, 5, -8, -20, -5, -1, -2), 2, 71.83546343457658)
((0, 5, 1, -12, 2, -3, -3, -1), 2, 71.86113982606058)
((-1, 1, -9, -25, -4, -4, -2, 1), 2, 71.88483141743009)
((-3, 0, -11, -12, -9, -4, 5, 4), 2, 71.90696983571374)
((-8, -21, 11, 13, -15, -6, -14, -28), 2, 71.92817543785625)
((3, 0, 10, 10, 5, 6, 4, -16), 2, 71.95475613643063)
((-4, -3, -7, -4, -1, -1, -6, -4), 2, 71.97803320620197)
((-7, -17, 10, 2, -14, -7, -19, -64), 2, 71.99760980118359)
((11, 2, -1, 3, 7, 6, 11, -2), 3, 72.07187758897817)
((-22, -10, 8, 20, 1, 2, -6, -33), 3, 72.09574365573839)
((-2, -13, -5, 2, -4, -5, -11, -80), 3, 72.11692474009723)
((0, -28, -1, -7, -8, -7, -7, -18), 3, 72.13940184590402)
((6, 13, 0, -6, 4, 3, -2, 3), 3, 72.17122136764759)
((2, 2, 9, 5, -10, -4, 4, 1), 3, 72.19581669592645)
((1, 10, 27, -6, 7, 2, -2, -9), 3, 72.21941078634234)
((-6, -6, -3, -9, -7, -2, 4, 16), 3, 72.23979190673663)
((0, 7, 1, 5, 2, -4, 0, 3), 3, 72.2633745935322)
((-2, -9, -55, -1, -2, -4, -4, -6), 3, 72.28675429588631)
((-2, -6, -23, -6, 1, 2, 6, 16), 3, 72.31078685550301)
((1, -5, 9, -7, 1, 1, -2, -6), 3, 72.33764865331797)
((2, 0, 4, -7, -1, -1, 0, -7), 3, 72.36083221340279)
((3, -1, -3, 1, -2, -2, -5, -5), 3, 72.38604960916942)
((-3, 1, 8, -11, -4, -3, -1, 4), 3, 72.40655559920609)
((-6, -9, -4, 7, -12, -8, -9, -4), 3, 72.42681698158714)
((-4, -1, -23, -4, -5, -3, 1, -12), 3, 72.44932031572063)
((2, 0, 0, 10, -2, 1, 2, 10), 3, 72.47721471135442)
((-3, 0, -6, 9, -3, 2, 4, -2), 3, 72.50014739179247)
((-1, 1, 3, 0, 6, 1, 2, 6), 3, 72.52310972164334)
((2, 3, -4, 6, -6, -4, -5, 1), 3, 72.54651280141907)
((-3, -7, -38, 3, -1, 0, 0, -1), 3, 72.57414719450983)
((-1, -2, 5, -3, -1, -2, -1, -8), 3, 72.60139386451017)
((-5, -4, 8, 5, 1, 1, 0, -1), 3, 72.62229327944743)
((-1, 0, 6, 1, 0, 0, 0, 1), 3, 72.64500301910847)
((-3, -4, 6, 1, -5, -1, -1, 2), 3, 72.67273890441999)
((0, -1, -13, -8, -3, -1, -3, 1), 3, 72.69615794926415)
((-1, -3, -10, -10, -2, -1, 0, 0), 3, 72.71904045377286)
((1, 0, -17, -1, 3, 1, 1, 0), 3, 72.74002653622445)
((1, -2, 7, -3, 3, -1, -5, -1), 3, 72.76056730730305)
((-1, 4, 13, 2, 1, -2, 0, 2), 3, 72.78733331470742)
((2, 1, 3, 6, 2, -1, -3, -5), 3, 72.80928300307498)
((-2, -4, -22, -6, -7, -5, 1, -2), 3, 72.83072180925278)
((-2, -2, 8, -5, -2, 2, -4, -13), 3, 72.8539908964899)
((2, -1, 3, -9, -5, 0, -2, 5), 3, 72.8822866995585)
((-2, -3, 3, 1, 0, -1, 1, 1), 3, 72.9013951759265)
((1, 3, -8, -5, -2, -3, -4, -1), 3, 72.92170046224575)
((1, 4, 1, -2, -1, -4, -2, -7), 3, 72.9488068677163)
((-1, 1, -19, 1, 9, 1, 0, 0), 3, 72.97068186237085)
((-1, -1, 4, 7, 5, 3, 0, 0), 3, 73.00038430200436)
((1, 1, -7, -9, -10, 0, 3, -2), 3, 73.02036686586891)
((-3, 0, -9, 6, 2, 2, -5, -1), 3, 73.04267063664702)
((2, 3, 6, -8, -2, 0, 0, 2), 3, 73.06548357907185)
((-3, -6, -57, 10, 3, 0, 0, 0), 3, 73.08957600769516)
((3, -2, 15, -2, -7, -4, -1, 1), 3, 73.111498327374)
((-1, 5, 20, 14, 11, 4, 1, 2), 3, 73.133835738832)
((-4, -5, -3, -14, -12, 0, -1, -4), 3, 73.15469866218429)
((0, 4, -3, -4, 1, -4, 0, -1), 3, 73.17810231214104)
((-2, 4, 14, 7, 10, 5, 0, -1), 3, 73.20552972952324)
((0, -2, -1, -9, -2, 1, 3, 0), 3, 73.22669427863264)
((0, -1, 0, -1, -3, -5, -2, -2), 3, 73.249230113084)
((0, 2, 16, -9, -3, -2, -2, 3), 3, 73.27555708110654)
((-4, -3, 33, 10, -8, -4, -1, -3), 3, 73.30970237121178)
((1, -7, -60, -17, 4, -4, -2, -1), 3, 73.34503819927713)
((-2, -7, -46, 4, -3, -1, -1, 0), 3, 73.36834035701314)
((-1, -1, 4, 0, 0, -4, -5, -6), 3, 73.40244117299919)
((105, 9, 14, 8, -1, -2, -8, 0), 1, 73.52246199600987)
((63, 36, 20, 11, 7, 7, 9, 25), 1, 73.54464545859373)
((34, 13, 0, 0, -1, -2, 0, -11), 1, 73.56783186958364)
((11, -6, -30, -5, -4, -11, -5, -14), 1, 73.6018289126249)
((-64, -4, -6, 4, 1, 3, 2, -4), 1, 73.62657476869181)
((17, 79, 13, 5, 3, 1, 0, -5), 1, 73.6499464885117)
((-18, -26, 4, 2, 0, 4, 7, 4), 1, 73.67107055476902)
((17, -12, 10, -2, -5, -3, -1, 1), 1, 73.69645330303011)
((-5, 3, -1, 4, 8, 4, -4, -2), 1, 73.72012778896917)
((5, -2, 0, -4, -3, -14, -6, 4), 1, 73.74548202817948)
((-43, -14, 5, 8, 2, 2, 2, -1), 1, 73.76709131848088)
((-1, -3, -1, -5, -5, -4, -2, 0), 1, 73.79979519097928)
((26, -13, -2, -11, -3, -1, -1, -8), 1, 73.82234299923196)
((40, 14, 1, -5, -3, -3, -5, 1), 1, 73.84989471607551)
((-6, -5, -2, 4, 2, -1, -1, 0), 1, 73.87185181679628)
((1, -8, -2, -5, -2, -1, -2, -2), 1, 73.89789882594027)
((-19, 2, 8, 1, 1, -1, -2, -3), 1, 73.92071575963222)
((25, 13, 0, -2, 0, -2, -1, 2), 1, 73.94223268060911)
((25, -32, 2, -2, 4, -4, -7, -8), 1, 73.96464991740928)
((15, 3, 0, -1, -2, -2, 0, 1), 1, 73.98948187080953)
((5, 0, 0, -2, -4, 1, 0, -3), 1, 74.01010018650621)
((4, -1, -1, -9, -7, -4, -1, 0), 1, 74.03194553174797)
((-52, -5, 0, 3, 2, 6, 4, 4), 1, 74.05462448163418)
((7, 5, -1, -5, -3, -4, -3, 2), 1, 74.07802014905673)
((48, -30, -2, 12, 12, -2, -5, -13), 1, 74.10624353913637)
((19, -2, -1, 0, 0, -4, -4, 1), 1, 74.12987241059419)
((-6, -9, -4, -3, -1, 0, 1, -1), 1, 74.15119090857775)
((56, 4, 0, -5, -2, 3, 0, 1), 1, 74.18039386964179)
((-2, 1, -3, 2, 3, 1, 1, -1), 1, 74.2127972567451)
((49, -3, -1, -1, 1, 2, 1, 0), 1, 74.23407755260062)
((-8, 7, 2, -3, -6, -5, -5, 1), 1, 74.2554969726239)
((-24, 13, 0, 11, 1, -5, -1, 2), 1, 74.28005067768865)
((-9, -3, 1, 1, 0, -2, -2, -1), 1, 74.30731388293842)
((16, 9, -7, -7, -4, -4, -2, -4), 1, 74.34325353269902)
((-8, 7, 1, -2, 3, 0, 0, 1), 1, 74.36580419185678)
((-36, 4, -4, 6, -2, -4, -3, -1), 1, 74.38659527240112)
((1, -3, 0, -2, -2, 1, 1, -1), 1, 74.41058563862269)
((14, 3, 0, 6, 4, 2, 4, 1), 1, 74.43361524983337)
((29, 1, 0, -4, 3, 3, -1, -1), 1, 74.45373921858973)
((-18, -9, -4, -11, -11, 0, -1, -3), 1, 74.47565640663942)
((1, -9, -4, -11, -7, -5, -2, -1), 1, 74.4966202520314)
((-7, 3, 1, 6, 4, -18, -5, 1), 1, 74.52500044189028)
((2, 0, -5, -4, 0, -4, -1, -1), 1, 74.54746785461981)
((2, 0, -5, -4, 0, -4, -1, -1), 1, 74.56862328083297)
((-11, -5, -3, 5, -9, -3, -1, -2), 1, 74.59431962865251)
((2, -5, 4, -3, -1, -3, -2, -2), 1, 74.62416803462595)
((1, 1, -1, -2, 4, 9, 0, 0), 1, 74.64469398099814)
((0, 0, 6, 5, 6, 4, -5, 1), 1, 74.66733643929939)
((1, 2, -22, -27, 3, 7, 1, 2), 1, 74.6904122351723)
((2, 5, 41, 36, 7, 3, -4, 3), 1, 74.71716227750824)
((-10, -21, -9, 4, -11, -7, 12, -5), 1, 74.7406736916769)
((3, 1, -9, -11, 3, 4, -1, 0), 1, 74.76148986018592)
((1, -5, -16, -34, 0, 5, 5, 1), 1, 74.78606010050011)
((-5, -12, 2, 4, -6, -5, -10, -4), 1, 74.80592007544635)
((3, -3, -10, -9, 0, -2, 1, 21), 1, 74.83080562586204)
((-4, 0, -77, 44, 4, -1, -16, 7), 1, 74.85182135772644)
((5, 9, 24, 34, 6, 4, -2, -5), 1, 74.87470443241615)
((0, 1, 6, -13, -5, -11, 1, 1), 1, 74.89775228941932)
((-1, 1, 15, 16, -2, -4, -6, -2), 1, 74.9246448770091)
((0, 3, 15, -10, 3, 5, 1, 0), 1, 74.94683746248921)
((9, 8, 41, 13, 1, -4, -16, -15), 1, 74.96872956257423)
((38, 24, 105, 51, 16, 10, 7, 21), 1, 74.99338875112682)
((-3, -2, -65, -22, -4, -1, 2, 8), 3, 75.04384520953867)
((13, -1, 14, 17, -2, -1, 5, 16), 3, 75.0646060704892)
((-6, -1, -20, -10, -6, -1, -2, -8), 3, 75.0878449381325)
((-6, -13, -57, -6, -6, -4, -3, 6), 3, 75.11084261920632)
((-16, -6, 10, -24, 0, -4, -4, 3), 3, 75.14008093149332)
((-16, -6, 10, -24, 0, -4, -4, 3), 3, 75.15956230624536)
((0, 1, 3, -9, -2, -3, 0, 4), 3, 75.18391017596356)
((-8, -11, 17, -35, -7, -6, -4, -3), 3, 75.20939783753148)
((-1, -8, -7, -4, -6, -4, 5, -6), 3, 75.23727284701074)
((1, 3, 3, 6, -1, -2, 0, 1), 3, 75.26019298346647)
((-3, -11, -28, -11, -5, -8, -3, 0), 3, 75.28177718580318)
((4, 2, 15, 9, 0, 2, -1, 4), 3, 75.30784871273083)
((1, 3, 19, 23, -1, 1, -1, -1), 3, 75.34828423979761)
((0, -1, 0, 2, 3, 1, -3, -2), 3, 75.39429100556553)
((-2, -5, -14, 13, 7, 4, 3, 0), 3, 75.41952265585755)
((-1, 1, -13, 6, -3, -1, -2, -1), 3, 75.44986768949538)
((-1, 0, -1, -1, 1, -2, -2, 1), 3, 75.48082338700067)
((-10, -22, -33, -32, -16, -8, -3, 1), 3, 75.51154588047068)
((2, -8, 20, 1, -2, -1, -2, 2), 3, 75.54420869993596)
((0, 3, -10, 3, 1, 1, -1, -5), 3, 75.57082246900923)
((-2, 0, -19, 0, 3, 2, -1, -3), 3, 75.59931042308001)
((-4, 0, 1, 18, -4, -1, -1, -3), 3, 75.62923181222342)
((-4, -3, -34, -28, -5, -2, -2, 4), 3, 75.66186954372405)
((1, 3, 3, 8, 3, 0, 4, -5), 3, 75.68859221737125)
((-12, -5, -28, -35, -6, -4, -2, -4), 3, 75.71657898232952)
((5, 5, 21, 5, 2, 3, 1, 0), 3, 75.7453862377689)
((1, 0, 12, 11, 0, 0, -3, 2), 3, 75.77561267375553)
((1, -2, 1, 7, 2, 2, 0, -1), 3, 75.80160608588409)
((1, 1, -9, -3, 1, -1, -2, -3), 3, 75.83361547790577)
((0, 0, -21, 5, -1, -1, -2, -1), 3, 75.86674413526062)
((0, -1, -1, 7, 6, 0, 1, 0), 3, 75.89826545233315)
((0, -2, 30, 1, 0, -1, -3, -2), 3, 75.92949540690682)
((-1, -3, 3, 1, 1, -5, -3, 0), 3, 75.96290972495038)
((-5, -7, -15, -3, -8, -8, -4, -3), 3, 75.99256141847353)
((-3, -4, -10, -10, -3, 4, 2, 1), 3, 76.02333636859694)
((1, -1, 5, 3, 15, 4, 2, 1), 3, 76.05303196605827)
((-2, -12, -61, -17, -20, -9, -4, -2), 3, 76.07905274687555)
((3, -1, 23, 10, 13, 7, 0, 3), 3, 76.10174138983903)
((-5, -7, -21, 4, 1, -2, -2, -1), 3, 76.12926174672673)
((-5, -10, -26, -102, -87, -21, -11, -7), 3, 76.24122135054216)
((-1, -6, 30, -9, -6, 1, 1, -2), 3, 76.27207384528366)
((-3, -7, -49, 15, 2, -3, 1, -1), 3, 76.31252020578974)
((15, 3, -26, -9, 4, 1, 2, 22), 3, 76.36009782025499)
((-43, 4, 48, 13, -2, -5, 4, 8), 3, 76.44028522735113)
((25, 1, 46, 8, 5, 2, 7, 31), 3, 76.46698623411974)
((10, -5, -16, 1, 0, 6, 6, 17), 3, 76.49359829264996)
((14, 0, -14, -6, 2, -3, 0, 6), 2, 76.54204543316366)
((1, -4, -19, 11, 1, 4, 1, 2), 2, 76.58172661074711)
((14, -8, 46, 15, -3, -3, -1, 9), 2, 76.61024706513577)
((19, -3, -3, -15, -6, -6, -3, 8), 2, 76.64016275246902)
((27, 6, 51, -3, 5, 12, 8, 4), 2, 76.67079344679556)
((0, 6, 8, -3, -2, -6, -5, 3), 2, 76.70451851349247)
((-5, 2, 3, -12, -7, -1, -1, -6), 2, 76.7301584133915)
((-34, -7, -4, 12, 6, 5, 1, -13), 2, 76.76086836287917)
((11, -3, 3, -3, 3, 1, 2, 13), 2, 76.7989610161538)
((-3, -4, -13, 15, 3, -1, -1, -8), 2, 76.82757783113405)
((0, -1, -12, 0, -1, -1, -1, 5), 2, 76.85422238998214)
((-13, -6, -37, -24, 0, -2, -6, -9), 2, 76.89377926810424)
((7, 1, -18, 6, 2, -3, 0, 2), 2, 76.92184471804264)
((-7, -21, -113, -46, -7, -4, -3, -4), 2, 76.9472451419152)
((5, -2, -87, -6, -3, -3, -3, -3), 2, 76.976809597743)
((2, -3, 8, -13, 1, 1, 0, 10), 2, 77.01142870827202)
((1, 5, -2, 26, 3, 0, 0, 4), 2, 77.04543544439053)
((3, 6, 8, 8, 7, 3, 2, 2), 2, 77.07850138183369)
((7, 0, -7, 1, -1, -1, 0, 1), 2, 77.11158043344021)
((2, 0, 26, -1, 3, 0, 1, -2), 2, 77.14172476336063)
((-2, 0, 14, -3, -2, 0, -1, 6), 2, 77.17551768159838)
((-5, -10, -28, -8, -7, -5, -3, 0), 2, 77.21128912795945)
((1, 2, 1, 0, 0, -4, -2, 1), 2, 77.24242044121748)
((1, 1, 9, 6, -1, -3, -2, 0), 2, 77.27856934741072)
((-2, -1, 19, -15, -2, -1, -2, 0), 2, 77.32811465656002)
((1, -11, 5, -20, -4, 0, 0, 0), 2, 77.3663834957684)
((0, -6, -33, -11, -5, -2, -2, 0), 2, 77.40919496712621)
((-2, -3, -2, -6, -6, -4, -1, -3), 2, 77.43963693153665)
((-1, -1, -42, -5, 0, -2, -1, -1), 2, 77.47103109824276)
((1, 5, 46, 3, 2, 1, 0, 0), 2, 77.50702149411373)
((1, 4, 38, 5, -3, -6, -1, 1), 2, 77.5256464569807)
((1, 4, 38, 5, -3, -6, -1, 1), 2, 77.54296513514146)
((-2, -2, -61, -3, 2, 2, -1, -4), 2, 77.56964219430742)
((-1, -5, -84, -11, -5, -3, -3, -2), 2, 77.59627648989725)
((0, 4, 41, 5, 3, -1, -1, 0), 2, 77.6162961155278)
((-2, -7, -62, -8, -5, -3, -3, 0), 2, 77.64090512815103)
((-72, -7, -9, -4, -3, -5, -2, -13), 2, 77.66415140814755)
((-8, -1, 4, -8, -11, -11, -2, -4), 2, 77.69065456210383)
((7, -2, 0, 3, 4, -2, -2, 2), 2, 77.71465291085961)
((0, -20, -81, -30, -20, -5, -5, -5), 2, 77.73824643109448)
((11, 2, -3, 3, 12, 4, 1, 0), 2, 77.76150183398724)
((17, 9, 42, 16, -2, -3, 0, 2), 2, 77.78754941331225)
((0, -2, 92, 11, 1, 0, -3, -6), 2, 77.81064117425359)
((0, -2, 92, 11, 1, 0, -3, -6), 2, 77.83055873748239)
((5, -4, -59, -61, -3, -4, -5, -6), 2, 77.85851243194176)
((-4, -7, 2, 15, 24, 1, -2, -4), 2, 77.8917482833275)
((-5, -5, -9, -3, -8, 1, -69, -14), 1, 77.9620755501249)
((0, -1, 6, 31, 7, 22, 32, 3), 1, 77.98202219258548)
((-9, -35, -43, -21, -7, 2, -1, -16), 1, 78.0112200220204)
((-78, -19, 10, 19, 5, 6, 14, -8), 1, 78.03091008302405)
((-24, -22, -9, -4, -9, -18, -6, -9), 1, 78.05303367660132)
((-42, -5, 1, -2, 4, -17, -7, -8), 1, 78.07425638417429)
((-12, -32, -10, 18, 9, 0, -1, -7), 1, 78.09520939612699)
((5, -16, -5, 3, -4, 1, 4, -1), 1, 78.12137443274116)
((35, -9, -7, -11, -1, -4, -3, 3), 1, 78.14203608219502)
((16, 5, -4, -7, 2, -3, -2, 0), 1, 78.16325993013002)
((-9, -2, -1, 6, -4, 9, 4, -2), 1, 78.18604208278002)
((-9, -2, -1, 6, -4, 9, 4, -2), 1, 78.20860642628215)
((12, -18, -7, -9, -5, -7, -4, -10), 1, 78.23519852847683)
((-16, -15, 0, -1, 1, -5, -5, -9), 1, 78.25920086849972)
((20, 12, 2, -2, 2, 4, 3, 3), 1, 78.28524502673864)
((-14, -16, -3, 19, 5, -3, -4, -5), 1, 78.32709631326658)
((-5, 6, 2, 8, 2, 2, 1, 2), 1, 78.34622018452198)
((16, 4, 2, -15, -9, -6, -5, -2), 1, 78.37080581972359)
((-22, 0, 1, 0, 2, 3, 3, 1), 1, 78.39388674722564)
((-14, -14, -5, 4, 3, 0, 2, -6), 1, 78.41712276396387)
((4, 2, 2, -14, -2, 0, 0, 0), 1, 78.43983421416797)
((15, 7, 2, 19, 3, 9, 10, 3), 1, 78.46120288808088)
((18, 0, 1, 5, 1, -1, 3, 2), 1, 78.47980960515535)
((39, 8, -2, -15, -14, -4, -3, -1), 1, 78.5066753942374)
((20, 8, 1, 2, -5, -6, 0, 1), 1, 78.52708502368247)
((3, 4, 1, -9, 0, 2, -1, 1), 1, 78.54706074537484)
((35, 1, 2, 2, 3, -3, -2, 3), 1, 78.56848814793233)
((2, 0, -1, -3, -1, -1, -1, -1), 1, 78.5892210700131)
((16, 6, 3, -4, -1, -2, -2, 1), 1, 78.61842688198222)
((4, 2, -2, -3, -3, -2, -1, 2), 1, 78.64259343413754)
((4, 2, -2, -3, -3, -2, -1, 2), 1, 78.66127199401994)
((-16, 2, -1, -5, -2, -1, 0, 2), 1, 78.68911621372438)
((14, 8, 0, -2, -2, 0, 0, 0), 1, 78.71994875213034)
((-33, -6, -2, -1, -1, 1, 2, 1), 1, 78.74404403165873)
((-33, -6, -2, -1, -1, 1, 2, 1), 1, 78.7625059227553)
((0, -12, -2, 8, 13, 67, 19, -2), 1, 78.79144203910415)
((-14, -10, -2, 9, 4, -22, -9, 3), 1, 78.8129526880899)
((10, 10, 2, -6, -5, -11, -5, -1), 1, 78.8359058950445)
((11, 1, 2, -3, -5, 6, -1, -1), 1, 78.85879695226843)
((3, -4, -1, -9, -1, 5, -2, -1), 1, 78.88296464478579)
((1, -2, -1, -18, -4, -5, -6, -1), 1, 78.90305269213817)
((2, -6, 0, -3, -2, -4, 3, 0), 1, 78.92948514364855)
((5, -4, -1, -1, 4, 42, 10, -4), 1, 78.9487401565375)
((-3, -5, 1, -4, 0, -15, -4, 1), 1, 78.9683464009319)
((2, -1, 2, -2, -5, -4, 0, 0), 1, 78.99041981857981)
((2, 2, 3, 23, 12, 8, 4, 0), 1, 79.01323504172869)
((4, 2, -14, 0, -3, -13, -4, 1), 1, 79.03819357531435)
((2, -2, -4, 8, 0, -3, 4, 0), 1, 79.05821605184998)
((-3, -1, 11, 4, -2, -4, -4, -2), 1, 79.07778865556448)
((1, 1, 11, -3, -5, -4, -2, -2), 1, 79.10240108927381)
((-1, -6, -15, 1, 0, 2, 3, 0), 1, 79.12817213080636)
((2, -1, -11, 9, 3, 1, 3, 0), 1, 79.15223205911181)
((-7, -18, -36, -47, -14, -1, -10, -3), 1, 79.1751732922651)
((0, 10, 29, 4, 4, 0, -11, -3), 1, 79.19683617958194)
((2, 1, -11, 12, 2, 1, 3, 1), 1, 79.22091093259377)
((-6, -11, 95, 39, -14, -11, -6, -1), 1, 79.24654798158771)
((11, 22, 49, 47, 26, 23, 7, 6), 1, 79.26923263328409)
((0, -8, -30, 17, -9, -10, -7, 39), 1, 79.29504358748773)
((16, 17, 21, -13, 10, 2, -1, -9), 1, 79.33378624711987)
((37, 21, 7, 3, 17, 14, 13, 13), 1, 79.36233350001625)
((-35, -8, -40, -11, -3, -4, -3, -35), 1, 79.38332300355394)
((21, -9, -50, -3, 0, -1, 1, 11), 3, 79.4572560950925)
((8, -1, 28, 16, 3, -2, 2, 3), 3, 79.48652690769738)
((3, -8, -23, -19, -4, 0, -2, -3), 3, 79.50911804970724)
((-5, 4, 3, -9, 0, 5, 1, -2), 3, 79.538384300864)
((4, -3, 5, -22, -1, -8, -2, 24), 3, 79.56061622883416)
((-30, 1, 15, 16, 0, 3, 0, 9), 3, 79.58524462761193)
((4, -1, 16, 12, 0, 0, 1, -9), 3, 79.60925780107411)
((-12, -2, -22, 8, 3, -1, 0, -7), 3, 79.63722917114497)
((-8, -5, -3, 3, -3, -1, -1, -5), 3, 79.65975531251907)
((12, -3, -6, -23, -4, 1, -1, 10), 3, 79.68124942625535)
((5, 2, -6, 1, -1, 1, -1, 3), 3, 79.70303718321456)
((4, 3, -57, -22, 2, -1, 3, 11), 3, 79.72577771265044)
((0, -3, 26, 4, -3, 1, -1, -11), 3, 79.7501061962141)
((4, -10, -26, 12, -4, -6, -5, 6), 3, 79.77455840905813)
((-2, -8, -5, -8, -3, -4, -6, 9), 3, 79.80135121497021)
((-1, -2, 13, -12, -1, -1, -3, -5), 3, 79.82317774423846)
((-11, -4, 5, -8, -4, -4, 0, -3), 3, 79.85048827451251)
((1, -2, -52, -11, -2, 0, -1, 1), 3, 79.8735520965841)
((0, 2, 15, 7, 1, 1, -2, 0), 3, 79.89626753805531)
((3, -3, 27, 4, 1, 1, -1, -11), 3, 79.92356039271787)
((0, -3, 3, 0, -1, -1, -1, 8), 3, 79.94908397568976)
((0, 2, 21, 4, 2, -1, -1, 2), 3, 79.97233595749643)
((-5, -2, 9, 2, -2, 0, -4, -12), 3, 79.99368581543582)
((7, -1, -9, 0, -1, -2, -2, 5), 3, 80.02025739111396)
((4, 4, 10, -5, 0, 3, -2, -1), 3, 80.04447126829355)
((-9, -7, -13, -8, -5, -4, -4, 8), 3, 80.06667069594585)
((2, 4, 9, 14, 1, 0, -2, 1), 3, 80.09033605898864)
((2, -3, -6, -7, 0, 2, 2, 1), 3, 80.1114909150208)
((-2, -9, -24, -20, -4, -2, 0, -3), 3, 80.13299415165332)
((0, 1, 13, 0, 0, 2, -2, -2), 3, 80.16084521352994)
((2, 3, 19, 1, 5, 3, 1, -10), 3, 80.18476772821067)
((-2, 1, 2, 9, -2, 0, 1, -8), 3, 80.20738566872825)
((2, 3, 5, -2, -1, -4, -2, 3), 3, 80.23153397509107)
((-4, -7, 8, 2, -7, -8, -4, -4), 3, 80.25908797265868)
((-1, 1, -7, 4, -1, -4, -3, 2), 3, 80.28487440907865)
((1, 0, -4, 7, 2, 4, 2, -1), 3, 80.31676691399218)
((3, 5, 19, -2, 6, -2, 1, 4), 3, 80.34704352590818)
((1, -6, -46, 1, -7, -6, -3, 12), 3, 80.37077160886267)
((-2, 0, 29, 7, -3, -7, -4, -4), 3, 80.39196181611776)
((0, 1, 11, -12, -7, -8, -1, -2), 3, 80.41982998342483)
((0, 1, 15, 3, 2, 11, -1, -3), 3, 80.44498066801268)
((0, 1, 15, 3, 2, 11, -1, -3), 3, 80.46964897946151)
((0, 2, -14, 9, 6, 1, 1, -1), 3, 80.49774807007981)
((-1, -2, -6, -6, -11, -7, -5, -2), 3, 80.51980210157319)
((0, -1, 3, 8, 21, 6, 1, -2), 3, 80.54234420801572)
((0, 1, -5, -24, -12, 2, 0, -1), 3, 80.56747778717309)
((0, -1, 3, -1, 8, 0, -1, -1), 3, 80.59076569038372)
((0, 1, 6, -9, -2, -7, -4, -1), 3, 80.61506110344851)
((1, 1, -2, -11, -6, -3, -1, 1), 3, 80.6368334655203)
((5, 23, 14, 27, 31, 11, 5, 3), 3, 80.66746929147597)
((0, 4, 5, 2, 3, -3, -2, 1), 3, 80.69228584998879)
((1, 2, -38, 19, 6, 1, -1, 1), 3, 80.71914137581258)
((-3, -6, -44, 16, -6, -3, -8, -6), 3, 80.74131856640528)
((0, 2, -2, 4, -1, 1, 1, 1), 3, 80.77540284714188)
((-39, 3, 33, 18, 4, 1, -4, -15), 3, 80.80455962354368)
((2, 6, 102, -2, 0, -1, -1, 11), 3, 80.82229795493176)
((8, 10, 91, 14, 2, 3, 6, 12), 3, 80.84317228190433)
((19, 14, 55, 16, 6, 4, 7, 39), 3, 80.87283423868575)
((4, -3, -4, 26, 2, 1, -1, 3), 3, 80.89312298975555)
((7, -7, -10, -7, 2, 2, 2, 2), 2, 80.93623152542237)
((-4, -1, 43, 6, -3, -5, -1, 3), 2, 80.95746677697768)
((4, 12, 50, 35, 3, 1, 1, 26), 2, 80.98349382978614)
((2, 8, -11, 12, 7, 4, -1, 3), 2, 81.00498794352244)
((2, 8, -11, 12, 7, 4, -1, 3), 2, 81.02276048577141)
((21, -4, 5, -3, -5, -6, -2, 13), 2, 81.0514411610254)
((-3, -4, -30, 2, 0, 11, 1, 6), 2, 81.08268651048648)
((5, 1, 24, 25, 1, 3, 1, 0), 2, 81.10708911758216)
((2, 4, -12, 4, 3, 1, 0, -4), 2, 81.13227230248788)
((-5, 1, 8, 3, 1, 2, 1, -4), 2, 81.15538230922171)
((-12, -1, 4, 9, -3, -7, -4, -5), 2, 81.18794534700932)
((-2, -2, -1, -6, -7, -6, -4, 2), 2, 81.21420617403408)
((3, 4, 64, 1, 2, 3, 2, 3), 2, 81.23829974301941)
((-2, -7, 8, -12, -3, 5, 1, 5), 2, 81.2601576322435)
((-8, 5, 40, 6, 1, 0, -1, -5), 2, 81.28362001084484)
((7, 3, 1, 19, 4, 4, 1, 3), 2, 81.31207432423571)
((2, 0, 6, 2, 2, -1, 0, 1), 2, 81.3403285040902)
((-2, -4, -8, -20, -4, -1, -1, -10), 2, 81.36686187764029)
((-2, 1, -11, -24, 1, 1, -1, -3), 2, 81.39390841410423)
((5, 5, 38, 1, -1, -2, -3, 6), 2, 81.4152018241231)
((6, 3, 38, 8, 5, 4, 3, 0), 2, 81.43558750596551)
((-1, 1, -5, 0, 3, 4, 3, -7), 2, 81.45767175705271)
((2, 4, 29, 1, -1, 0, 0, -1), 2, 81.48648585466428)
((11, -13, -75, -11, -6, -1, -2, 14), 2, 81.50782031771627)
