((-23, -11, -5, -6, 0, 4, 3, 2), 2, 5.701806902607436e-07)
((17, 2, 53, 0, -5, -5, -2, 0), 3, 0.019273247692193657)
((17, 2, 53, 0, -5, -5, -2, 0), 3, 0.037183763534664134)
((7, -34, -40, -4, -3, 4, 10, 6), 3, 0.0617961832104594)
((-17, -6, 2, 4, 1, 1, 8, 0), 3, 0.08323896842909519)
((1, 33, -1, 7, 4, -1, -1, 0), 3, 0.10253901461373109)
((23, 17, 37, 10, 1, -2, 2, -1), 3, 0.12175296351413763)
((-35, 20, -74, 2, 3, -6, -7, 3), 3, 0.1412668274576213)
((7, -13, 64, -7, -9, -6, -6, -5), 3, 0.16044770587799273)
((-12, 17, -13, -5, 1, 1, -2, -13), 3, 0.17921862438206668)
((4, -11, 7, -2, 0, -2, 1, 6), 3, 0.19924451058540452)
((-26, -49, -32, -1, -1, -1, -9, -5), 3, 0.21841911701818306)
((8, 4, 22, 0, -1, -5, 0, -5), 3, 0.23988813054857083)
((14, -9, -75, -1, 1, 2, -4, 6), 3, 0.2605771368946819)
((22, 9, 52, 5, 2, 3, 0, 2), 3, 0.2801001237292098)
((-8, -4, -11, -13, -6, -8, -16, -4), 3, 0.29891095488160196)
((-2, 57, -16, 16, 1, 3, 5, -3), 3, 0.3179059543969484)
((20, 10, -32, 1, -1, -5, -7, 5), 3, 0.33817416739364703)
((-10, 5, -15, 1, -2, -3, -3, -10), 3, 0.3575996533301403)
((1, -10, -36, -7, 1, 10, 14, 2), 3, 0.3756435914541318)
((14, 28, 0, -2, 0, 13, 13, -8), 3, 0.39630180804296883)
((1, 7, 32, -5, -2, 2, 2, -3), 3, 0.4148229874047086)
((0, -7, 22, 2, 2, 2, 4, 0), 3, 0.43366403813368454)
((13, -7, -25, -4, -5, -6, -2, 7), 3, 0.45519748208207184)
((-2, 17, 12, 2, 1, 6, 9, 3), 3, 0.47421357828295785)
((4, -46, 11, -12, -6, -5, -1, -6), 3, 0.4929896284132442)
((-41, -78, 32, -5, -3, -5, -7, 2), 3, 0.5143132458676154)
((1, 2, 4, 4, 1, 3, 5, 3), 3, 0.5453185314426142)
((6, -48, 14, -7, -7, -5, -9, -14), 3, 0.5634206279970122)
((29, 45, 5, 7, 1, -1, 3, 8), 3, 0.5829983521778052)
((-3, -20, 29, 7, -1, 1, 5, -4), 3, 0.6022362486672026)
((-37, 37, -10, -1, -3, -7, -14, -17), 3, 0.6223664779368582)
((16, -13, 11, -2, -2, -7, -5, -3), 3, 0.6424299960657532)
((4, -8, 4, -5, -6, -7, -11, 4), 3, 0.6623241705296409)
((-8, 9, -17, -7, -3, -11, -12, -2), 3, 0.6819053157945753)
((4, -14, -25, -4, -2, 1, 5, 10), 3, 0.7010958872866812)
((-2, -24, 15, -2, -5, -3, 3, -9), 3, 0.7237132447272541)
((-13, -14, 21, 1, -2, -2, -5, -5), 3, 0.7445647525700895)
((1, 22, 29, 5, 1, 1, -1, -11), 3, 0.7648204215916024)
((-3, -2, 22, -3, -4, -3, 0, -16), 3, 0.784672972865101)
((-32, -33, -34, 6, 2, 0, 11, 33), 3, 0.8038458687558088)
((0, 9, -6, -10, -5, -2, -4, -9), 3, 0.8248872467685009)
((-3, 20, -21, -12, -3, -5, -6, -5), 3, 0.8454696293255333)
((-19, 15, 9, 1, 2, 0, 1, -6), 3, 0.865926001950018)
((-23, -43, 52, 27, 11, 8, -5, -21), 3, 0.8848862204432585)
((72, 25, -8, -2, 0, 2, 25, 35), 3, 0.9052279867490007)
((27, -30, -49, -23, -10, -10, 3, -8), 3, 0.9244447865528586)
((-77, -59, -4, 1, -13, -34, -81, -106), 3, 0.9438731233928032)
((0, -21, 26, 1, -2, -12, -40, 16), 3, 0.962545400637462)
((77, -4, -24, 1, 0, 7, 24, 29), 3, 0.9795059954499581)
((27, -68, -8, -29, -17, -20, -2, -19), 1, 1.0197738663382425)
((-51, -45, -16, -9, -2, -9, -40, 7), 1, 1.1594578721997)
((5, 27, 10, 1, -1, 6, 37, -1), 1, 1.1779801919228203)
((-20, 11, 27, 14, 1, 0, -2, 14), 1, 1.197544231767047)
((63, -8, -6, 2, 4, 4, 25, 11), 1, 1.215812250902311)
((56, -40, 3, 10, -1, -6, -17, 7), 1, 1.234008427270602)
((-44, -2, -18, -17, -7, -2, -5, -13), 1, 1.253763477646066)
((-15, 38, 6, 5, 0, -4, -26, 8), 1, 1.2750346384769333)
((18, -22, -4, -7, -6, -8, -28, -22), 1, 1.2955657047718423)
((15, 20, -4, -13, -7, -13, -24, -44), 1, 1.3158344879492312)
((-52, -7, -7, 3, 0, 5, 19, 26), 1, 1.3337746531875951)
((2, -25, -1, -6, -2, 2, 18, -12), 1, 1.3533153156235211)
((-29, 18, 24, 31, 7, 2, -12, -3), 1, 1.3734888786256365)
((10, -7, -12, -16, -1, -8, -26, -14), 1, 1.3930455061208897)
((28, -29, -15, -11, -8, -8, -58, -4), 1, 1.4121984456874384)
((-78, -36, 12, 2, -3, -10, -26, -29), 1, 1.4316330545149758)
((74, -32, -11, -5, 1, 2, 12, 7), 1, 1.4535023348899265)
((93, 4, -27, -7, -3, -14, -14, -16), 1, 1.474303666832019)
((-55, 24, 17, 3, -1, 5, 18, -7), 1, 1.4953199568943398)
((-44, 5, 13, -4, -3, -1, 1, -15), 1, 1.516643574348711)
((-47, -61, -15, -6, -6, -17, -22, 17), 1, 1.545280899517057)
((-68, -31, -13, -6, 2, -6, 2, 23), 1, 1.5654550326998626)
((-68, -31, -13, -6, 2, -6, 2, 23), 1, 1.5833746714333772)
((16, 20, 4, 13, 2, 3, -13, 6), 1, 1.6060809770616309)
((-26, -14, 0, 4, -2, 2, 9, -9), 1, 1.6268737562933693)
((10, 4, 24, 28, 1, 0, 23, -1), 1, 1.6478478529846108)
((-36, 7, 10, 2, -2, 3, 1, 5), 1, 1.667190092540326)
((50, 28, -1, -4, 4, 11, 17, 12), 1, 1.6868875546660738)
((66, 19, 2, -2, -4, -4, -30, 5), 1, 1.7067292725064573)
((79, 37, 12, 13, 5, 14, 23, 15), 1, 1.7268110364174407)
((21, 1, -8, 9, 0, 4, 5, 5), 1, 1.7460666085082364)
((12, 31, 0, 2, -1, 0, 0, 3), 1, 1.7670703545953712)
((60, 15, 18, 2, 4, 4, 5, 41), 1, 1.7862660577136895)
((-43, -26, 3, -2, 3, -2, -11, 1), 1, 1.806087819229914)
((31, -14, 6, -1, -1, 7, 11, 6), 1, 1.8255024717332924)
((31, -14, 6, -1, -1, 7, 11, 6), 1, 1.8425172337113631)
((-23, 1, -28, -8, -3, 8, 40, 12), 1, 1.8641219502460329)
((3, -3, -14, -4, 0, -7, -4, -8), 1, 1.8832748898125815)
((-9, -11, 2, 6, 2, 9, 7, 5), 1, 1.907034889356437)
((2, 25, 98, -7, -3, 8, 22, -2), 1, 1.926571560527531)
((12, 11, 3, 29, 8, 13, 21, 11), 1, 1.9472012680818551)
((-4, -13, -70, -6, 7, 3, 12, 6), 1, 1.966496752820969)
((14, 16, -2, 22, 10, 11, 30, 28), 1, 1.9849113083936298)
((-16, -9, 8, -10, -11, -22, -51, -19), 1, 2.0088931082259966)
((27, 40, 100, 14, 3, -13, -74, -18), 1, 2.0291196980323063)
((-20, -2, -10, -5, -9, -8, -9, -2), 1, 2.0479122834026104)
((-4, 29, -1, -11, -5, -21, -38, -17), 3, 2.067860625032073)
((7, 5, -9, -3, 0, 2, 19, 2), 2, 2.1073838399388767)
((0, -20, -79, -21, -1, -1, 13, -4), 2, 2.1294566748202506)
((-4, 33, -31, -3, -4, -31, -75, -16), 2, 2.1487356243193467)
((-29, 24, 21, 13, 2, -4, -14, 3), 2, 2.167510534088253)
((15, -9, -73, -5, 2, 8, 43, 26), 2, 2.1862962772902734)
((11, -9, 25, 3, -2, -7, 0, -4), 2, 2.2070080908639946)
((-20, -36, -7, 10, 4, 1, -1, -4), 2, 2.225829185268812)
((15, -26, 17, -4, -4, 10, 39, 14), 2, 2.2474669722835166)
((-1, 22, 59, 15, 0, -6, 16, -8), 2, 2.266882194967585)
((47, 19, -4, 8, 6, 9, 8, 11), 2, 2.288482350056733)
((-9, 45, 3, -6, -1, -6, -19, -8), 2, 2.309129163031765)
((-4, -3, -8, 15, 6, -10, -30, -3), 2, 2.3279935911690415)
((-23, 4, 65, -4, -8, -30, -95, -26), 2, 2.3477617557003816)
((8, 6, 6, -3, -3, -1, 20, -4), 2, 2.3688305023862064)
((-10, 19, 76, 11, 3, 4, -8, -18), 3, 2.9449410718256614)
((-18, -26, -64, -8, -2, -4, -1, -53), 3, 2.9616439449661596)
((-8, 26, 62, -10, -8, -8, -16, -21), 3, 2.982788525683789)
((9, 20, 55, 9, 5, 10, 26, -29), 3, 3.0001567996898215)
((6, -1, 25, -5, -5, -7, -12, -49), 3, 3.0195857067104566)
((17, 31, 1, 4, 0, 5, 12, -1), 3, 3.0390676405352854)
((-17, -20, 69, 3, -8, -7, -19, -11), 3, 3.058903656568767)
((15, 22, 3, 8, 7, -2, -18, 1), 3, 3.0777315931418667)
((23, 36, -118, 2, 11, 32, 55, 64), 3, 3.0964283881562067)
((-14, 3, -53, -1, 2, -12, 2, -26), 3, 3.116512432789951)
((-53, -23, 25, 10, 4, 8, 5, 2), 3, 3.137425520147335)
((29, 26, 75, 8, 0, -3, -11, 0), 3, 3.1574114937023543)
((-5, -21, -25, -6, -5, -7, -8, -13), 3, 3.17808852625397)
((-6, -19, 53, -11, -6, -7, -2, -17), 3, 3.1989445955423275)
((15, -16, -93, -13, -7, -24, -34, 17), 3, 3.2216805505664747)
((4, -7, -33, -14, -6, 4, -2, -1), 3, 3.2420850367481453)
((-18, 21, -32, -13, 0, -2, -2, -7), 3, 3.2609722721130328)
((1, -26, 14, -6, -5, -9, -9, -7), 3, 3.2810266673508837)
((6, -8, 4, 2, 4, 6, 6, 6), 3, 3.2997884629639134)
((4, -16, -4, -1, -1, -2, -3, -5), 3, 3.319077105534744)
((53, -35, -9, 3, 2, 6, 5, 10), 3, 3.3406025669534674)
((-5, 50, 25, 21, 11, -2, -1, 0), 3, 3.359496644486638)
((-7, -14, -3, -4, -7, -5, 0, -2), 3, 3.3786940581470266)
((2, 31, 20, 15, 7, 1, 4, 1), 3, 3.3980152010172024)
((-3, -6, 5, -8, -16, -9, -1, -1), 3, 3.4163978264712087)
((9, -21, -5, 2, 0, 2, -2, -3), 3, 3.436175684074283)
((2, -21, -7, 1, -2, 2, -1, -1), 3, 3.4560841130554274)
((-21, 24, -4, -5, -6, -4, -1, -4), 3, 3.4748795493291826)
((-6, -23, -63, -11, 3, 1, -2, -3), 3, 3.4949675852277586)
((2, -3, -2, -1, -4, -3, 1, -2), 3, 3.513617055244807)
((-5, -30, 3, -3, 0, 1, -2, -2), 3, 3.5385641709857856)
((-1, -9, -35, -3, 0, -1, -1, -2), 2, 3.760560601654664)
((0, 10, -24, -1, -2, -1, 0, 0), 2, 3.7796713478501336)
((3, 2, 19, 1, -1, -1, -1, 2), 2, 3.7988402524760096)
((4, -31, 9, 0, 0, -1, 0, 1), 2, 3.818961358854621)
((2, 3, -7, 0, -1, -1, 0, 0), 2, 3.836394633459343)
((6, 10, 60, 9, 1, -1, 1, -1), 2, 3.8564695552020436)
((4, 6, -32, -2, 0, -1, 1, 2), 2, 3.8976474344719843)
((2, -6, 11, 1, -2, -1, 0, -2), 2, 3.917957840839762)
((2, 9, 9, 1, 2, -1, -2, -3), 3, 4.260424898650382)
((-2, -5, 0, -2, -3, 0, -1, -2), 3, 4.280119509872678)
((-7, -11, 7, -4, -2, -4, -2, -4), 3, 4.299615698214764)
((-14, -34, -47, -15, -8, -7, -5, -6), 3, 4.318974473010497)
((15, 29, -41, 6, 7, 6, -7, -18), 3, 4.975801531505334)
((4, -3, 21, 11, 9, 5, 1, -2), 3, 4.993306648877029)
((-3, -37, -12, 0, 0, -3, -8, -16), 3, 5.013618195606187)
((7, -20, -43, -4, -1, -2, -2, 6), 3, 5.0318890656449025)
((13, -1, -18, -9, -4, -2, -3, 2), 3, 5.050236910076803)
((-14, -53, -67, -9, -5, -7, -7, -17), 3, 5.069287217119105)
((8, 20, -5, 11, 7, 5, -1, 10), 3, 5.088967003643455)
((-13, 0, 6, 0, 6, 25, 63, 19), 3, 5.1074596739706815)
((-15, 37, -19, 0, -1, 0, -2, -4), 3, 5.1289070206348395)
((15, -9, -18, -10, -3, 1, 10, -21), 3, 5.150558491986111)
((-3, 9, -50, 8, 8, 0, -12, 0), 3, 5.168688527394331)
((12, -15, -11, -8, -6, 1, -6, -8), 3, 5.18989639816858)
((-52, 0, 4, -2, -1, -1, -7, -18), 3, 5.211191506588438)
((2, -12, 32, 2, -5, 2, -6, -14), 3, 5.230659185896011)
((19, 9, 98, 9, 0, 2, 4, 16), 3, 5.253797688487482)
((8, 13, -58, 5, 0, 5, 1, 3), 3, 5.274735863795237)
((56, 13, -49, -6, 2, 6, 17, 29), 3, 5.293397307606781)
((-13, -15, 103, -7, -6, -3, -6, -13), 3, 5.312720161019027)
((-10, -34, -82, -7, -6, -9, -18, -21), 3, 5.333253508036697)
((33, 10, -99, 0, 7, 10, 15, 7), 3, 5.354402650199848)
((-8, -16, -21, -7, -2, -1, 2, -8), 3, 5.376028463420058)
((-34, 9, 15, -3, -3, 0, -3, -2), 3, 5.395558862603559)
((38, -95, 41, -18, -12, 5, 20, -3), 3, 5.4154216771294825)
((-13, 6, 17, 8, 2, -1, 1, -3), 3, 5.43472514439826)
((6, -21, -80, -7, -1, -4, 1, -1), 3, 5.4542333065348405)
((-2, 18, -18, 4, 4, 0, -5, 9), 3, 5.471383771517194)
((4, 3, -4, 0, -3, -4, -11, 7), 3, 5.489999030692826)
((-1, 47, 13, 6, 5, 7, 5, 3), 3, 5.509954214490572)
((22, 33, 3, 6, 0, -14, -29, -1), 3, 5.536768101811464)
((26, -9, -10, 2, 0, 6, 11, 0), 3, 5.555866304031747)
((-15, 28, -66, 14, 10, 5, 2, -11), 3, 5.57542122098493)
((4, 11, -34, -8, -2, 3, 10, 3), 3, 5.59308998021473)
((2, 23, 92, -1, -5, -4, -9, -6), 3, 5.613772144392558)
((-23, -16, -90, -23, -10, -5, 4, 2), 3, 5.6354983094142534)
((-31, -72, -1, 6, 2, 2, -4, -9), 3, 5.655534458870016)
((2, -7, 31, 0, -1, -4, -20, -7), 3, 5.67498332221481)
((2, -6, 16, -6, -5, -6, -13, 1), 3, 5.695304562015703)
((-7, -40, 55, 3, 1, 4, 5, -2), 3, 5.715358957253554)
((-19, 19, 20, 3, 0, -3, -9, 2), 3, 5.739706813089068)
((-23, -41, 4, -5, -4, -7, -3, 2), 3, 5.759177343300092)
((-18, -25, -57, -12, -3, -8, -8, -8), 3, 5.779009368068741)
((2, -17, -63, -20, -10, -7, 0, 2), 3, 5.799526750027083)
((30, 0, 2, -4, -2, 0, 3, -3), 3, 5.819017236562266)
((-14, -19, 8, 2, -2, -3, -3, -5), 3, 5.838766585130828)
((-26, -24, 6, 8, 5, 1, -4, -3), 3, 5.857815751811749)
((-1, 34, 22, 2, -2, -6, -9, -8), 3, 5.878184886790624)
((37, 58, 25, 2, 2, 2, 1, 2), 3, 5.8980408591482645)
((22, 0, 22, 4, 2, 3, 5, 5), 3, 5.917207483051379)
((28, 63, 14, 3, 4, 3, 6, 8), 3, 5.9374853891198125)
((-10, -24, 1, -3, -3, -1, -4, -2), 3, 5.956804251267227)
((-6, 6, -2, 0, 1, -1, 0, 3), 3, 5.974556827058495)
((8, -21, 3, 0, -4, -13, -21, 0), 3, 5.996160973412475)
((-6, -21, -85, -7, 0, 6, 8, 1), 3, 6.016607652965225)
((8, 23, 34, 1, 1, 3, 5, 5), 3, 6.03553480097843)
((-50, -11, 43, -23, -13, -2, 2, -8), 3, 6.055038401669489)
((-4, -10, 17, -1, -5, -3, -3, -3), 3, 6.074517484590867)
((-12, 11, -9, 3, 1, 10, 19, -22), 3, 6.095186534612819)
((7, 35, 8, 10, 7, 14, 13, -10), 3, 6.1170883152871145)
((19, 7, 55, 10, 0, 0, 4, 2), 3, 6.136589635255413)
((-7, -6, -43, -12, -6, 0, 6, -4), 3, 6.155382220625716)
((-10, 9, 12, 9, 2, 5, 11, 0), 3, 6.17566183723622)
((17, 11, 14, 15, 5, 4, 2, -1), 3, 6.195432282490321)
((5, -10, 18, -1, -4, -7, -8, 1), 3, 6.215299658461767)
((17, 7, -14, 0, -2, 2, 3, 7), 3, 6.236798321388048)
((-17, -54, -84, -36, -12, -7, -9, -11), 3, 6.255798452529606)
((7, -22, 75, 10, -1, 2, 6, -1), 3, 6.274049936424853)
((-23, 60, 33, 0, -10, -7, -4, -12), 3, 6.293030681422943)
((10, 18, 3, 18, 13, 10, 11, 12), 3, 6.312999549557254)
((-22, -26, 21, -9, -9, -8, -8, -13), 3, 6.331977443651893)
((23, -16, -12, 13, 10, 9, 0, -10), 3, 6.351561439820279)
((26, 6, -45, -3, -1, 0, 1, 9), 3, 6.372493913321131)
((-7, -5, -37, -3, 4, 9, 6, -6), 3, 6.39037934121323)
((-15, -41, 7, -21, -11, -8, -4, -7), 3, 6.411600896324045)
((-33, -28, -19, 1, 2, 8, 8, -4), 3, 6.43273692433132)
((5, 50, 48, 10, 0, -19, -22, -14), 3, 6.452448640974325)
((27, 16, -14, 6, 3, -6, -7, 1), 3, 6.472882206371199)
((-17, -13, 34, -6, -5, -1, -5, 6), 3, 6.494168762080704)
((19, -9, 27, 3, 0, -7, -7, -9), 3, 6.520757998209633)
((-10, -85, 49, -3, -5, -2, 14, 21), 3, 6.546170381393864)
((-14, 51, 3, 5, 3, 3, 3, -9), 3, 6.566033766100477)
((30, -1, -29, -5, 0, 0, 4, 7), 3, 6.586275750785424)
((11, 2, -5, 0, -2, -15, -21, 1), 3, 6.606226943318338)
((10, -10, 55, 4, -1, -7, -1, -4), 3, 6.624789175689776)
((12, 23, -53, 7, 4, 7, 5, 3), 3, 6.644102906210978)
((1, 81, 78, 13, 4, 4, -3, 4), 3, 6.663908132487185)
((17, -20, -12, -2, 0, 1, 5, -2), 3, 6.683955115376063)
((22, -8, -21, 0, 2, -10, -24, -1), 3, 6.702533312806828)
((0, 11, 76, 1, -4, 0, 11, 17), 3, 6.721385767149609)
((1, -7, -32, 0, 3, 4, 6, 1), 3, 6.741403100642594)
((-3, -24, -8, -1, -1, -2, -2, 16), 3, 6.76035419624479)
((-18, -41, -29, -7, -6, 0, -3, -31), 3, 6.780212449325191)
((4, 14, 11, -5, -2, 6, 0, -27), 3, 6.800357503292793)
((2, -4, 7, -9, -8, -2, 5, -1), 3, 6.819467679307572)
((8, -96, -19, -4, -4, -10, -13, 16), 3, 6.838432459246335)
((1, -25, 0, -7, -1, 2, -1, -5), 3, 6.858849489403192)
((10, -33, -22, -1, 0, 3, 15, 6), 3, 6.881255309807678)
((-40, -61, -33, -11, -7, -5, -8, -10), 3, 6.902525900457855)
((-6, 13, -1, -6, 0, 1, -7, 5), 3, 6.922880780919473)
((-21, -9, 1, 2, -2, -5, -7, 9), 3, 6.941625471111795)
((42, -8, 41, 9, 0, -1, 0, 12), 3, 6.9608223145914945)
((-3, 5, 1, -9, 0, 0, 4, 3), 3, 6.982248564570113)
((-4, -4, -11, 0, -2, -2, 4, -7), 3, 7.002648489306261)
((-10, -4, -15, -2, -3, 0, -4, -10), 3, 7.022705165266873)
((-3, 7, -11, -11, -6, -13, -21, -47), 3, 7.041806218390608)
((-84, -23, -10, 6, 3, 5, 17, 1), 3, 7.060323406487516)
((38, 0, -9, -1, -3, -3, -12, 1), 3, 7.07968560236739)
((121, 29, -27, -5, 4, 8, 22, 58), 3, 7.099452056356659)
((-75, -14, 1, -4, -5, -11, -16, -51), 3, 7.1194203543102805)
((37, -9, -4, -2, -4, -5, -28, -15), 1, 9.13614717503977)
((10, 4, 8, 10, 2, 5, 17, -7), 1, 9.154655810426323)
((35, 34, 12, 2, 0, 1, 3, -7), 1, 9.172008689553719)
((-13, 6, -1, -2, -1, -2, 8, -3), 1, 9.19140737699777)
((-24, 43, -1, -4, -1, -3, -13, -16), 1, 9.210192550019102)
((38, 2, -6, -6, -2, 0, -1, -2), 1, 9.229866064555857)
((-29, -4, 8, 14, 7, 5, 1, 6), 1, 9.248592508966091)
((27, 19, 1, -2, 3, 4, 14, 25), 1, 9.26835725241329)
((-46, -10, 8, -2, 1, 1, -12, -29), 1, 9.286969660685472)
((-11, 34, 15, 5, 2, -1, -22, -20), 1, 9.30581698340204)
((-2, -15, -14, -4, -5, 0, 4, 10), 1, 9.329091188997793)
((15, 21, 9, 11, 3, 6, 23, 39), 1, 9.349384489944864)
((-3, -43, -8, 2, -1, 1, 18, 12), 1, 9.36896677557118)
((-11, -15, 0, 3, 3, 0, -9, -26), 1, 9.388750334981156)
((2, 28, 5, 1, -1, -8, -13, 3), 1, 9.408646790167804)
((-5, 83, 15, 3, 1, 2, 15, -5), 1, 9.42893039804314)
((13, 19, 12, 1, -3, -4, -16, 0), 1, 9.449959232080646)
((-10, 23, 2, 6, 2, 3, 3, -6), 1, 9.469718273720941)
((-2, 18, 0, -8, 3, 3, 9, 18), 1, 9.48913064550156)
((0, -10, -9, -12, -5, -4, -8, -16), 1, 9.508227137179773)
((7, 4, -5, -9, -5, -9, -30, -4), 1, 9.535618047359208)
((18, -34, 4, 11, 4, 4, 3, -9), 1, 9.5554124402023)
((35, 12, 1, -7, -2, 6, 15, 20), 1, 9.575551792363)
((-28, 34, 0, -3, -1, -6, -11, 4), 1, 9.59448749308656)
((-7, -29, -9, -2, -1, -4, 0, 3), 1, 9.613460825735675)
((-30, -37, -4, 2, -2, 3, 13, 6), 1, 9.633172542378679)
((6, -26, -9, 2, 2, 3, 5, 4), 1, 9.651726222039764)
((-43, 18, 3, 4, -4, -4, 0, 2), 1, 9.67172702029273)
((21, 9, 13, -2, -3, -11, -5, -2), 1, 9.692286595622152)
((2, 40, 2, 4, 0, -8, -23, -3), 1, 9.712149980328766)
((14, 10, -1, 4, 3, 8, 16, 13), 1, 9.732955303535691)
((1, -8, -23, 0, -1, 5, 3, -4), 1, 9.753037067446673)
((1, -12, -5, -4, -4, 3, 22, -3), 1, 9.774144586419437)
((8, -26, 21, 4, 7, 19, 24, -1), 1, 9.794756618372363)
((6, 4, 15, 2, 4, 4, -5, -8), 1, 9.814686714219736)
((-1, 17, -33, 9, 6, 12, 23, -9), 1, 9.833867022459417)
((0, 26, -49, -15, -4, 1, 5, 18), 1, 9.852579212352394)
((11, 25, 114, 32, 9, -7, -3, -2), 1, 9.872740801560015)
((6, 8, -99, -1, -1, -9, -62, -16), 1, 9.893445772965453)
((3, 31, 111, 8, -10, -29, -37, -5), 1, 9.912811389929468)
((-5, -3, -17, -6, 1, 7, 14, 4), 1, 9.933356140560944)
((-5, -30, -45, -8, 7, 58, 113, 16), 1, 9.952266753334131)
((-12, -18, -71, -20, -4, 1, 6, -5), 1, 9.972128997679365)
((-10, 3, -14, -5, -5, -4, -21, -4), 2, 10.25326913098761)
((-8, -18, 11, 2, 2, -2, -11, 1), 2, 10.273044707867923)
((-14, -10, 2, -5, -5, -10, -49, -8), 2, 10.293582046150425)
((-2, 5, 28, 3, -1, -1, 19, 2), 2, 10.314329210926942)
((5, -22, 37, 5, 1, 1, -1, 1), 2, 10.334808390779038)
((-4, -58, -26, -2, 0, 0, -1, -3), 2, 10.353724705359129)
((29, 6, -1, -5, -5, -5, -6, -4), 2, 10.374210157198815)
((-10, 26, 3, -4, -5, -22, -24, -13), 2, 10.39385345215899)
((10, -4, -13, 0, 3, 9, 8, 5), 2, 10.413218498942316)
((5, 7, -14, 3, 3, 6, 7, 5), 2, 10.433275745083616)
((-3, 4, 5, 2, 0, 1, 13, 1), 2, 10.452640791866942)
((41, 28, 17, -2, -2, -5, -7, -2), 2, 10.472128997679365)
((2, -21, 9, -4, -1, 9, 6, 4), 2, 10.492619581145265)
((-8, -8, -21, -5, -2, -9, -12, -4), 2, 10.51239914929041)
((-13, 21, 10, 6, 0, 0, -6, -4), 2, 10.5823722937799)
((-12, 9, -1, 4, -2, -14, -35, -8), 2, 10.602990597720417)
((-1, -1, 4, 3, 4, 10, 22, -2), 2, 10.624148292593922)
((29, 39, 7, 2, 3, 7, 14, 4), 2, 10.646721746121345)
((9, -11, -24, -6, -3, -2, 3, -3), 2, 10.667967248821151)
((-6, 17, 11, 9, 2, -3, -6, -4), 2, 10.686842510391543)
((6, 55, 12, 4, 2, 7, 15, 8), 2, 10.705133336754418)
((-4, 10, -3, -7, -3, -7, -1, -4), 2, 10.72562791148515)
((-8, -18, -61, -2, -4, -10, -43, -9), 2, 10.745957133815706)
((18, 6, 46, 5, 0, -1, 4, -3), 2, 10.76444467251672)
((-3, 19, 47, 3, 0, 2, -7, -1), 2, 11.243524172810364)
((-34, -7, 6, -3, -2, -8, -16, -11), 2, 11.264283881562067)
((38, -13, 33, -1, 1, 8, 17, 5), 2, 11.285265390602282)
((-4, 20, 6, 5, 2, 8, 10, 1), 2, 11.304291179874902)
((6, 6, -23, -7, 1, 1, 3, 6), 2, 11.325554358176106)
((-13, -12, -19, -7, -3, -3, 2, -2), 2, 11.345789500692769)
((4, 5, 20, 2, -2, -11, -17, -2), 2, 11.364931036645514)
((11, 32, 90, 9, -2, -2, -4, -1), 2, 11.385557893296385)
((-3, -16, -43, -6, -3, -8, -20, -3), 2, 11.407292040847745)
((-3, -6, 56, -2, -2, 2, -17, -5), 2, 11.42766174600731)
((-4, -24, -18, 1, 2, 5, 12, -1), 2, 11.445286601323959)
((1, -1, 0, -3, 1, 5, -2, -2), 2, 11.466480217580951)
((-2, -26, 53, -1, -3, -8, -14, 2), 2, 11.484900474960515)
((-20, 60, -15, 0, -3, -5, 2, -4), 2, 11.506051327665737)
((13, -16, -10, 1, -3, -10, -15, -8), 2, 11.533316227912625)
((-2, -22, -41, -12, 0, 5, -3, 2), 2, 11.553806241197835)
((1, 18, 27, 5, 1, -1, 0, 2), 2, 11.573461509952503)
((2, 8, 32, 6, 4, 0, -13, 1), 2, 11.592615019699743)
((-9, -11, 6, -2, -2, 5, 18, 1), 2, 11.612283402610288)
((14, 0, 17, 3, -2, -15, -18, -3), 2, 11.630432253981287)
((7, -36, -36, -6, -6, -8, 5, -5), 2, 11.64847961318942)
((1, 32, -7, -1, -1, -2, -3, 3), 2, 11.66964529059259)
((-14, -21, 16, -5, -4, 2, 10, -2), 2, 11.689774379500864)
((1, -25, 19, -1, -5, -8, -19, -2), 2, 11.710112154541774)
((0, 2, 11, 2, 1, 6, 17, 2), 2, 11.728840879674769)
((-8, -48, -67, -18, -5, -4, -5, -5), 2, 11.750085242013194)
((-29, 25, -13, -1, -4, -3, 0, -7), 2, 11.77434814092586)
((-9, 3, 19, -1, -5, -5, 1, 0), 2, 11.794495475616223)
((8, 0, 5, -1, 0, -2, -21, 0), 2, 11.81563777561109)
((-15, -6, 5, -3, -1, 0, 11, 0), 2, 11.836058797032779)
((8, -11, 2, 5, 1, 3, 5, 4), 2, 11.857288904853949)
((7, -16, -3, 1, 1, 5, 7, 3), 2, 11.8786547156794)
((-38, -34, 19, -6, -7, -3, 5, -7), 2, 11.89866406664272)
((19, 17, 31, 6, 3, 9, 31, 8), 2, 11.918206439620716)
((4, 19, -11, 2, -1, -9, -28, -3), 2, 11.938936498976526)
((1, 17, -31, -6, 1, -1, -5, -2), 2, 11.959059315897207)
((-12, 1, 22, 2, -2, 0, 11, 1), 2, 11.979001955719768)
((4, -2, -9, 4, -2, -3, -26, -1), 2, 11.99886305970362)
((14, -16, -8, -3, 4, 11, 25, 5), 2, 12.018225255583495)
((-10, -14, -9, -13, -6, -12, -21, -5), 2, 12.038301887868265)
((16, -17, -21, -1, -3, 6, 26, 2), 2, 12.058249089136348)
((-19, 53, 27, 5, 5, 0, -2, -2), 2, 12.078012122041475)
((8, -7, 4, 2, 3, -1, 2, 2), 2, 12.09765769772441)
((16, 7, 14, -1, 1, 12, 38, 1), 2, 12.117928761624558)
((-17, -8, 20, 0, -3, -7, -20, -7), 2, 12.139444529971549)
((14, 4, -15, 1, -2, 0, -7, 3), 2, 12.159293089980215)
((-18, -10, 1, -1, -3, -2, 3, -4), 2, 12.179265949379358)
((-1, -39, 2, -3, -4, -7, -16, -2), 2, 12.198650382306154)
((11, 10, 2, 1, 3, -1, -9, -1), 2, 12.218902060062835)
((-31, -59, -4, 2, 1, -2, 13, 0), 2, 12.241388275944647)
((7, 39, 30, 1, -1, 0, -16, 0), 2, 12.260282923658508)
((-7, -2, 3, 6, -2, -4, 0, -4), 2, 12.278071991013952)
((8, 15, -21, 3, -2, -2, -3, -2), 2, 12.298331081119606)
((23, 23, 7, -1, 1, 2, -2, 2), 2, 12.317374545993625)
((-48, -36, -19, -4, 1, -9, -31, -5), 2, 12.337693505071757)
((-6, -14, -69, -9, -4, 3, 26, -1), 2, 12.357169166908994)
((7, 16, 12, 0, -1, -1, 4, 0), 2, 12.375949778484802)
((13, -26, -3, 1, 1, -3, 1, -3), 2, 12.396776198377266)
((2, -28, 28, -5, -5, 6, 28, 2), 2, 12.416607652965224)
((-18, 6, -4, 2, 1, -7, -9, -1), 2, 12.43568817958411)
((-9, 10, 16, 1, 3, 2, 8, -8), 2, 12.456038498600206)
((0, 25, 1, 2, 2, 5, -2, 8), 2, 12.475216526117126)
((4, 7, 6, 2, 9, 18, 35, 3), 2, 12.493973760284634)
((25, -59, -27, -2, -3, -7, -31, 2), 2, 12.514643380487277)
((-72, -26, -4, 3, 2, 22, 18, -8), 2, 12.541335249140452)
((8, -4, 12, -2, -1, -2, 8, 10), 2, 12.5630876424739)
((-3, -45, -33, -11, 2, 9, 13, -2), 2, 13.894197841295906)
((-15, -61, -20, -4, 1, 3, 2, -1), 2, 13.913478501337075)
((-4, 4, -40, -7, -1, -2, -21, -3), 2, 13.935789101566286)
((5, -34, -54, -5, 1, 4, 6, 2), 2, 13.955585204951449)
((0, 9, -15, 2, 7, 18, 22, 9), 2, 13.976437853155666)
((-1, -10, -33, -9, -4, -4, -1, 2), 2, 13.996688390550966)
((7, 3, 0, -3, -1, 1, 5, 2), 2, 14.015805408734028)
((9, 6, 26, -3, -2, -2, 9, -6), 2, 14.035482344354927)
((-36, -40, -1, -8, -4, -2, -1, -9), 2, 14.056936533187367)
((12, 8, -21, -1, 3, 8, 17, 4), 2, 14.074603011694405)
((-3, -11, -20, -5, -2, -3, -8, -5), 2, 14.093983453356369)
((-7, -20, 39, 3, 2, -5, 7, 3), 2, 14.114252236533758)
((-56, 29, -23, -2, 0, 6, -8, -9), 2, 14.13212398008929)
((-2, -10, -1, -4, 1, 3, 10, 3), 2, 14.152574650906873)
((11, 12, 7, 8, 2, 0, 9, -2), 2, 14.171216708574947)
((-4, -12, -8, 4, 7, 8, 4, 2), 2, 14.189395779522531)
((-16, 26, 11, 1, -3, -4, -7, -3), 2, 14.209541403670823)
((23, 22, -34, -3, 0, -2, -3, 1), 2, 14.22958724619832)
((5, -3, 22, 0, -2, -3, -25, -4), 2, 14.251402359407697)
((-16, 1, 11, 2, 2, 7, 13, 0), 2, 14.27279724944835)
((-15, -8, -43, -5, -3, -1, 8, -1), 2, 14.293282131107349)
((4, -32, -4, -1, -5, -10, -12, -1), 2, 14.31292542606752)
((5, -2, -18, -1, -2, -6, -5, 0), 2, 14.33168950240331)
((-11, -20, -17, -9, -6, -2, -2, -4), 2, 14.354172297200982)
((-3, -2, -27, -5, -3, -4, -5, 1), 2, 14.376241710998215)
((10, 10, -5, -1, 0, 10, 27, 4), 2, 14.393474852180656)
((-11, 11, -1, 7, 4, 9, 29, 2), 2, 14.415119481363645)
((26, -30, -21, -4, -1, -3, -9, -1), 2, 14.43299464600332)
((0, 3, -8, 1, -1, 0, 1, 2), 2, 14.453066146661877)
((-7, -18, -14, -4, -1, -7, -13, -6), 2, 14.473575546090556)
((-20, 18, 28, -1, -1, -9, -16, -6), 2, 14.49276212631783)
((8, 14, 6, 5, 2, 4, 19, 1), 2, 14.51471693379632)
((-4, -22, 15, 1, 2, 3, 9, -1), 2, 14.541982404223898)
((5, -24, -32, 2, 3, -41, -51, -5), 2, 14.561038983253793)
((8, 12, 25, 3, 0, -2, -4, -5), 2, 14.579504855088578)
((-58, -18, -18, -4, -5, -18, -29, -11), 2, 14.600841586698825)
((-4, 6, -43, -8, -6, -2, -5, -5), 2, 14.621621821955378)
((-1, -10, 11, -6, -5, -6, -12, -4), 2, 14.64174349851468)
((14, -6, -28, 0, 3, 2, -23, -5), 2, 14.66125166065126)
((9, 6, 51, 1, -2, 11, 25, 0), 2, 15.740253616371028)
((-10, 37, -21, 4, -4, -27, -42, -29), 2, 15.758876287895633)
((1, 0, -1, 4, 5, 7, 7, 16), 2, 15.780802586339611)
((-9, -17, -48, -1, 0, -3, -8, -6), 2, 15.801118124333602)
((13, -20, 3, -7, -6, -13, -10, -6), 2, 15.820910806634622)
((-13, 2, 12, -2, -5, 2, 15, 3), 2, 15.83857443423821)
((-13, 2, 12, -2, -5, 2, 15, 3), 2, 15.857101315406853)
((-18, 3, -16, -10, -1, 1, 4, -3), 2, 15.877259483530331)
((2, -5, -17, -3, -4, -2, 1, -2), 2, 15.901690015565933)
((1, -11, -23, -7, -6, -12, -25, -5), 2, 15.92121300240046)
((-21, 65, 28, 7, 3, 6, 4, -1), 2, 15.939433126357743)
((17, -2, 8, 8, -1, -7, -12, -2), 2, 15.959825068564228)
((-1, -37, 14, -5, -2, -1, 0, -1), 2, 15.978784716876778)
((-13, -10, 7, 4, 3, 0, -14, -4), 2, 16.000342678594848)
((2, 14, 14, 5, 3, -6, -11, -4), 2, 16.02127686263777)
((0, 14, 11, 3, -1, 2, 3, 6), 2, 16.041837008147883)
((-8, 5, -4, -3, -3, -13, -8, -3), 2, 16.060435161902806)
((-1, -3, -10, 0, 0, 5, 16, 0), 2, 16.079853805671018)
((15, -27, -13, -1, -2, -11, -16, -2), 2, 16.099549557254694)
((0, 37, 37, 6, 0, 2, 4, 0), 2, 16.11902179800779)
((-17, -35, -33, -12, -9, -12, -32, -6), 2, 16.138896016147516)
((-17, -35, -33, -12, -9, -12, -32, -6), 2, 16.15755803013975)
((12, -8, -38, -9, 1, 8, 17, 3), 2, 16.176475485081223)
((-2, -5, -6, -3, -5, -5, -13, -3), 2, 16.19685374295114)
((-3, -31, -16, -2, -2, 4, 18, -1), 2, 16.217530205322067)
((-16, -4, -25, 0, -2, -4, -3, -1), 2, 16.23735082647691)
((2, 1, 60, -1, -4, 2, 6, 0), 2, 16.25952401315977)
((4, -2, -8, 1, 5, 8, 5, 0), 2, 16.27913879908543)
((-3, -2, -38, 2, 0, 3, 0, 0), 2, 16.301500715576765)
((-17, 35, 6, 0, -1, -1, 7, -1), 2, 16.32353021672568)
((-17, 35, 6, 0, -1, -1, 7, -1), 2, 16.34049651334508)
((-14, -10, -48, -7, -2, -2, -2, -4), 2, 16.362442197932523)
((-4, 34, 14, 7, 5, 5, -8, -1), 2, 16.382777122069985)
((-5, 13, -23, 0, 0, 3, -3, 0), 2, 16.403311039268345)
((-5, 13, -23, 0, 0, 3, -3, 0), 2, 16.421360109018547)
((20, -12, -36, -8, -2, -8, -28, 0), 2, 16.440952087716596)
((-1, 11, 24, 3, -4, -7, -18, -1), 2, 16.459689935740638)
((4, 22, 32, 4, 4, 4, 8, 3), 2, 16.478495065086125)
((2, 19, 22, -1, 2, 0, -11, -1), 2, 16.50078627917187)
((18, -68, 22, -3, -2, 5, 15, 8), 2, 16.52514268771774)
((-22, 9, 6, -4, -2, -4, -10, -7), 2, 16.547639737032664)
((-13, -22, -29, -10, -4, 1, 6, -1), 2, 16.567057810620184)
((1, 15, 11, 2, -2, -4, 4, 0), 2, 16.585888598096737)
((13, 14, 36, 7, -1, 3, 8, 3), 2, 16.60522456566486)
((-4, 9, -41, 2, -1, -4, 1, -3), 2, 16.624180792893267)
((8, -14, -5, -1, 3, 3, -2, 2), 2, 16.643337153543957)
((8, -14, -5, -1, 3, 3, -2, 2), 2, 16.6612493799285)
((-10, 33, -29, 0, 0, 6, -7, -1), 2, 16.683977922603674)
((-13, 2, -7, -6, -7, -16, -31, -8), 2, 16.702985466094205)
((18, 13, -31, -2, 1, 1, -3, 2), 2, 16.722498759857)
((14, 4, 5, 0, -1, 0, -3, 3), 2, 16.74449633088726)
((-11, -15, -35, -3, -3, -9, -25, -10), 2, 16.764944150801387)
((-3, 6, 37, 5, -1, -1, -5, 0), 2, 16.785540217694987)
((-4, -7, -17, -6, 1, 0, 5, -1), 2, 16.805813562317898)
((-9, 14, 37, -2, -4, -4, 0, -3), 2, 16.824253205840932)
((-17, -41, -15, -9, -6, -5, -13, -8), 2, 16.84301329091189)
((-9, -25, -4, 4, 0, 2, 8, -1), 2, 16.862312766915835)
((5, 8, 17, -1, 1, 7, 22, 4), 2, 16.88348414612591)
((1, -6, -26, -5, -1, 4, 12, 0), 2, 16.90222940649892)
((-3, 10, 43, 1, 2, -2, -11, -3), 2, 16.924047370611746)
((13, 30, -9, 3, 1, 2, 11, 2), 2, 16.943045791211233)
((1, -46, 0, 2, -1, 3, 9, -2), 2, 16.96184407838844)
((-2, -5, 15, 0, -2, -2, -7, -1), 2, 16.98189391218077)
((16, -8, 41, 4, 2, 5, -5, 5), 2, 17.00091742073063)
((-14, -10, -60, -11, -2, 2, 17, 1), 2, 17.018484687797564)
((-5, -17, -18, -2, -1, 1, -21, -5), 2, 17.038803646875696)
((12, -15, 9, 0, 0, 4, 20, 3), 2, 17.05902510505579)
((1, 2, -4, -3, -3, -9, -16, 0), 2, 17.07551244989537)
((27, 6, 43, 5, 1, -2, 5, -4), 2, 17.09859963622472)
((-8, 8, -3, 3, -2, -18, -45, -8), 2, 17.118705347724696)
((-5, -2, -33, -3, 0, -1, -5, -4), 2, 17.13808807010942)
((5, -15, 5, -2, -2, -7, -12, -2), 2, 17.157496450625203)
((-6, -20, -38, -8, -2, -1, -11, 0), 2, 17.178424932861223)
((6, -5, -6, 3, 2, 8, 7, 4), 2, 17.198169719984264)
((24, -1, 33, -2, -1, -2, 4, 0), 2, 17.218661443811545)
((-17, -58, -5, -3, 0, 14, 32, 1), 2, 17.23881391012812)
((-26, 5, 3, 5, 0, 0, 18, 2), 2, 17.256644030493263)
((34, -17, 21, -3, -1, 6, -9, -1), 2, 17.27618754383264)
((-5, 6, 14, 16, 5, -10, -8, -5), 2, 17.295338772857118)
((-23, 12, -25, -5, -7, -12, -23, -3), 2, 17.31497921691384)
((-4, 19, 33, -4, 3, 4, 16, -3), 2, 17.334408123934473)
((6, -4, 0, 0, -2, -7, -13, -1), 2, 17.355030419139826)
((-49, -20, 1, 5, 5, -2, -13, -5), 2, 17.37519999087711)
((5, -7, -33, -10, -3, -16, 6, -8), 2, 17.393587747957326)
((12, -6, 28, -3, 1, -1, 7, 5), 2, 17.413764161862893)
((-5, 0, 24, 5, 0, -1, 1, -2), 2, 22.743764218880962)
((15, 7, -14, -1, 0, 5, 10, 1), 2, 22.764654499010735)
((4, -6, 29, 1, -3, -11, -26, -3), 2, 22.7852819258423)
((-12, -10, -29, -3, 0, 1, 8, 0), 2, 22.806814229429307)
((-3, -2, 16, 1, -3, -2, -9, -1), 2, 22.826760290336008)
((-6, -15, 17, -5, -2, -3, 4, 0), 2, 22.847099775918988)
((-5, 6, 36, 5, 1, 3, 4, -2), 2, 22.867419305177812)
((17, 3, 73, 10, 1, 1, 10, 4), 2, 22.88947674518055)
((-12, -3, -51, -1, -1, -1, -6, 0), 2, 22.909264866036047)
((-8, 2, -47, -1, 2, -3, -2, -3), 2, 22.929598649812124)
((3, -10, -5, -2, -1, -1, -3, 2), 2, 22.949253348386105)
((-5, 0, -8, -2, -1, -1, -4, -2), 2, 22.970185251706265)
((-3, 11, 16, -1, 1, 4, 28, 2), 2, 22.99077276588951)
((-18, 2, 22, 2, 1, -3, -12, -2), 2, 23.010335095191667)
((18, 1, -5, 2, 2, 1, 0, 2), 2, 23.030390630790897)
((-1, -8, -18, -6, -2, -1, 4, 1), 2, 23.05040226247698)
((-10, -19, -34, -6, -4, -6, -22, -4), 2, 23.070756572757908)
((25, -27, -11, 6, 3, 2, 10, -1), 2, 23.090385043020135)
((-13, -12, -9, -3, -1, 3, 7, -1), 2, 23.10994566178022)
((-8, 10, -21, -4, 0, 0, -1, -2), 2, 23.128753071848468)
((9, 1, 11, 4, -2, -5, -21, 3), 2, 23.14924935712127)
((0, 29, 17, -6, -3, 0, 5, 1), 2, 23.170269638448424)
((-1, 12, -34, -2, 1, 3, 5, 2), 2, 23.190337718022842)
((-29, 2, 29, 5, 1, -6, 3, -6), 2, 23.210905275881927)
((-6, -3, 17, 1, -3, -1, -7, -3), 2, 23.231057172017813)
((-20, -4, -4, -1, 0, 4, 8, 2), 2, 23.252884829202376)
((20, -21, -4, -2, 0, -10, -20, -8), 2, 23.316207386120663)
((-57, -27, 40, -1, -5, -1, 7, -1), 2, 23.33787767343471)
((-10, 53, 40, 0, 1, 1, 6, -3), 2, 23.359744102906213)
((-15, 16, 13, 3, 0, 3, -4, -5), 2, 23.37922660691173)
((-6, 12, -10, 1, -1, -15, -25, -3), 2, 23.398582530804013)
((5, 21, 13, 1, -2, -1, -5, 1), 2, 23.415954796074875)
((4, -20, 15, -4, -1, 3, -2, 0), 2, 23.437365651174858)
((-39, -40, -6, 0, -2, 3, 11, -1), 2, 23.456885216925244)
((-7, -5, 24, -1, -5, 2, -2, 3), 2, 23.51421916605372)
((-3, -2, 14, -2, -1, -1, -2, -1), 2, 23.541212660292047)
((0, -10, -16, -4, 1, 3, 12, -1), 2, 23.561370258234835)
((-8, -2, -29, -4, -2, 1, 3, -1), 2, 23.579978675242184)
((-9, 7, -18, 2, 1, 1, -3, 2), 2, 23.60278248176847)
((-6, 3, 6, 5, 3, 5, 11, 2), 2, 23.623228020959843)
((17, -3, 16, 2, 0, -1, 1, -4), 2, 23.643047501753305)
((-18, 2, -4, 0, 0, 2, 7, 1), 2, 23.659470416174887)
((20, -4, 5, 6, 1, 1, -5, 0), 2, 23.679560162615534)
((4, -11, -13, -7, -2, -2, -4, -1), 2, 25.180591619484215)
((11, 20, 112, 12, 1, 1, 3, 3), 2, 25.200205265048496)
((3, 11, 72, 8, 5, 3, 3, -1), 2, 25.22094843856018)
((15, 12, 30, 1, 4, 8, 7, 5), 2, 25.238724961940438)
((12, 30, -4, 4, -1, -17, -23, 0), 2, 25.258591767731193)
((-6, -10, -11, -8, -3, -1, 0, -2), 2, 25.279358888831872)
((1, 15, 3, 1, 3, 10, 22, 4), 2, 25.301283476733776)
((-13, -21, -61, -9, 0, 2, 5, -3), 2, 25.32020549312077)
((12, 23, 27, 10, -1, -8, -21, -1), 2, 25.340995991629747)
((7, 11, -1, 5, 1, 2, 3, 0), 2, 25.35980568242076)
((3, 2, -3, -2, -3, 1, -1, 0), 2, 25.379895428861406)
((-5, -37, -24, -6, -1, -3, 0, 1), 2, 25.40159536557135)
((2, 5, 2, 3, 0, -4, -11, -1), 2, 25.42254836557705)
((-7, -14, -106, -11, -4, -7, -31, -4), 2, 25.440728576886016)
((7, 8, -27, -4, 0, 11, 23, 5), 2, 25.460472223647674)
((-3, -7, 17, -5, -1, -2, 4, 1), 2, 25.479933630967654)
((-6, -12, -5, 0, 1, 7, 15, 1), 2, 25.499116219930094)
((-4, -5, -6, -5, -1, -2, -1, -2), 2, 25.523078633618994)
((-5, 2, -31, -8, -3, 1, 29, 0), 2, 25.54454137516179)
((14, 28, 60, 22, 8, 1, -7, 1), 2, 25.564103134283254)
((-21, 8, 31, -2, -3, 0, 0, 0), 2, 25.583789762975886)
((2, 32, 31, -2, -5, -10, -11, -2), 2, 25.605473734626504)
((-2, 51, -11, 2, -1, -1, 0, 3), 2, 25.623981229651676)
((-6, -6, -12, -1, 0, 1, 0, 0), 2, 25.64222416083657)
((-1, -5, 5, 1, 0, 2, -1, -2), 2, 25.66547099775919)
((-3, -1, 21, 5, -1, -3, 0, -2), 2, 25.68541363758175)
((1, 14, 16, -5, -3, 0, -1, 1), 2, 25.704027756396002)
((19, 8, 15, 4, -3, -9, -22, 0), 2, 25.725355365115206)
((-12, -33, -7, -4, -4, 1, -3, -4), 2, 25.746808983766957)
((-2, -15, -7, 0, 0, -4, -3, -3), 2, 25.76999367099434)
((-5, -1, 17, -1, -1, -3, -13, -1), 2, 25.79083719630751)
((4, 5, 4, 0, 0, 3, 5, 0), 2, 25.810198251826005)
((-3, -9, -78, -11, -1, 6, 12, -1), 2, 25.82939110404087)
((-20, 15, 10, 7, 5, 0, 0, 0), 2, 25.850198137789867)
((-20, 15, 10, 7, 5, 0, 0, 0), 2, 25.867408471744696)
((-5, 14, 52, 4, -1, -2, 8, -1), 2, 25.888642570830697)
((4, 16, 30, 1, -1, -1, -5, 0), 2, 25.909128592851076)
((2, 5, 33, 2, 1, -2, -19, 0), 2, 25.928260435732085)
((2, 5, 33, 2, 1, -2, -19, 0), 2, 25.94548730492693)
((1, -1, -20, 0, -2, 3, 14, -2), 2, 25.966117012481256)
((1, -1, -20, 0, -2, 3, 14, -2), 2, 25.98321274011734)
((-1, -12, 10, 1, 1, 0, 4, -1), 2, 26.002358837515608)
((-3, -3, 37, 5, 3, 2, 2, 3), 2, 26.024116932655957)
((-3, -3, 37, 5, 3, 2, 2, 3), 2, 26.042108414156445)
((-6, -1, -3, -5, -6, -21, -26, -5), 2, 26.061653638037892)
((-6, -4, 8, -2, -2, 3, 4, -1), 2, 26.08384335996077)
((-7, 2, 15, 1, 1, 1, -1, -4), 2, 26.102840640198878)
((-2, -5, -34, -14, -5, 2, 1, -1), 2, 26.121796297246597)
((6, 4, 2, 5, 4, 6, 9, 2), 2, 26.144666814913645)
((-7, -33, -58, -8, -1, -2, -7, -4), 2, 26.163510716546075)
((5, -4, -23, 1, 1, 2, 4, 1), 2, 26.184091958741725)
((-9, -41, 1, -2, 1, 12, 15, 1), 2, 26.204558024437944)
((2, 13, 19, -2, 2, -7, -18, 0), 2, 26.22453259437916)
((-7, -12, 1, -3, -4, -7, -5, -3), 2, 26.242530347867238)
((3, 8, 1, -2, -7, -15, -15, -4), 2, 26.262965053625493)
((3, -47, -22, -10, -4, 1, 3, -2), 2, 26.283850202129056)
((5, 5, 6, -2, -5, -8, -10, -1), 2, 26.303200994395123)
((-3, -15, -9, -1, -3, -5, -1, -2), 2, 26.324699657321403)
((-8, 35, 47, 9, 3, 5, 14, 5), 2, 26.343287547823905)
((-2, 4, 7, 3, 0, -7, -20, -2), 2, 26.361923333504386)
((1, 9, 22, 4, 2, 7, 10, 2), 2, 26.382452689257224)
((4, 5, 0, -2, 0, -3, -7, 1), 2, 26.402060633014603)
((-3, 11, 7, 1, 1, 4, 2, 0), 2, 26.424050791695887)
((-9, -37, -21, -3, 2, -2, -7, -3), 2, 26.44454536642662)
((2, -2, -4, 4, 1, 1, -3, 1), 2, 26.465737272141542)
((-4, -9, -8, 1, 1, 5, 9, 2), 2, 26.483853053032504)
((-3, 21, 16, 2, -1, -7, -17, -2), 2, 26.50385328110478)
((-1, 7, -5, -2, -1, 2, 7, -1), 2, 26.53335043875404)
((-3, -3, -34, -1, 0, 0, 0, -2), 2, 26.553454439711945)
((-5, -10, -22, -3, -3, 1, 9, 1), 2, 26.57329843827509)
((2, -36, -30, -3, -3, 0, -2, -1), 2, 26.592135497739232)
((2, -36, -30, -3, -3, 0, -2, -1), 2, 26.60983789762976)
((0, 4, 5, -2, -2, -4, -8, 1), 2, 26.632643984878808)
((-5, -18, -11, -4, -3, -2, -2, -2), 2, 26.65339685146223)
((5, 17, 28, 0, -1, 1, -4, 0), 2, 26.674755820119397)
((-8, 7, -13, -2, 2, -3, -11, -1), 2, 26.693795293728584)
((-3, -14, -17, -10, -5, -2, 10, -3), 2, 26.712825644446724)
((-5, -9, -56, -8, -2, -3, 3, -1), 2, 26.7322112177349)
((-2, 1, 14, -1, -3, -4, -4, -1), 2, 26.751688019933518)
((1, -8, -4, -6, -2, 2, -2, 0), 2, 26.771607852528465)
((5, 2, 32, 1, -1, -2, -6, -1), 2, 26.79112285683333)
((-5, -9, -10, 1, 1, -3, -11, -2), 2, 26.81104439997035)
((-2, -12, 2, 0, 1, 0, -2, 1), 2, 26.83194608371393)
((5, -1, -7, 3, 0, -2, 5, 2), 2, 26.851856793417834)
((5, 24, 32, 2, -1, 7, 13, 2), 2, 26.870587229092898)
((-4, 14, 4, -2, -3, -5, -8, -2), 2, 26.88862717595206)
((13, -15, -43, -3, -5, -7, -14, 0), 2, 26.911305542726492)
((-1, 0, 1, -4, -3, -4, -12, -4), 2, 26.93219012104936)
((-6, -22, -57, -2, 0, 6, 2, -1), 2, 26.9544112029102)
((-7, -15, 12, -1, -2, -2, -2, 0), 2, 26.974885821316775)
((0, 3, 16, 1, -1, 3, 7, 0), 2, 26.99616895594214)
((-6, -1, 12, 2, 1, 0, -3, -2), 2, 27.01845959984719)
((12, 31, 53, 9, 2, 1, 2, 0), 2, 27.038241448715098)
((-6, -12, -4, -9, -3, -5, -15, -4), 2, 27.057518117491433)
((-1, 0, -16, 2, -2, -8, -12, 0), 2, 27.077726461515653)
((10, 0, 8, 1, 0, 2, 11, 2), 2, 27.097559056464995)
((-6, -10, -54, -3, 0, 2, 3, -2), 2, 27.117433844785413)
((-1, 5, -18, 1, 4, 7, 0, 1), 2, 27.138238597811647)
((-6, -4, 10, -8, -6, -17, -22, -4), 2, 27.1575551792363)
((-1, -1, 2, -4, -4, -2, 3, -4), 2, 27.176703557357328)
((-3, -11, -22, 4, 1, 2, 7, 1), 2, 27.196793303797975)
((0, 2, -7, -5, -2, -5, -1, 1), 2, 27.216244447865527)
((0, 2, 6, 5, 1, -2, -5, 0), 2, 27.23527707930643)
((2, -1, 13, 1, -2, 2, 1, 1), 2, 27.256469555202045)
((3, 24, 11, 5, 0, -9, -31, -3), 2, 27.276637986577946)
((3, 5, 18, 2, 3, 10, 15, 2), 2, 27.297706733263773)
((0, 4, 33, 3, 1, 1, 2, 1), 2, 27.318269729677336)
((5, -1, 1, -3, 1, 4, 0, 2), 2, 27.338564170985787)
((-10, -27, -34, -4, -3, -4, 2, -2), 2, 27.358186939441108)
((0, 8, 44, 4, -1, -6, -14, -1), 2, 27.3786136626697)
((1, 19, 1, 3, 1, 2, 7, -1), 2, 27.40204010650975)
((5, -5, 36, -2, -8, -27, -22, -4), 2, 27.4229201233871)
((-8, -2, -12, -11, -4, 1, -9, -9), 2, 27.441299897937657)
((35, 0, -4, 0, -2, 0, 13, 6), 2, 27.46135942480172)
((1, 16, 5, 3, -3, -7, -14, -3), 2, 27.483278310896722)
((-7, -5, -20, -2, -5, -13, -32, -1), 2, 27.502897088087217)
((0, -8, 6, -7, -6, -25, -68, -15), 2, 27.523017624285135)
((3, -28, -32, -1, 2, 13, 7, 4), 2, 27.54955497397125)
((3, 36, 37, 0, 0, 5, 17, 2), 2, 27.57195908383367)
((12, 22, 27, 2, 3, 6, -3, 14), 2, 27.59171641493189)
((-7, -18, -10, 0, 2, 5, 1, -3), 2, 27.610349349708923)
((-6, 14, -2, -3, -1, 0, 9, -3), 2, 27.631187173215192)
((-9, 30, 18, -10, -1, 1, 0, 0), 2, 27.650388007959723)
((14, -43, -38, -11, -1, -11, 0, -1), 2, 27.66862181625357)
((-19, 20, 26, 11, 2, -4, -4, -2), 2, 27.69048938608645)
((-8, -26, -59, -15, -3, 8, 13, -4), 2, 27.709613816618486)
((-9, -10, -28, -22, -6, 5, 11, -1), 2, 27.731039496416415)
((2, 31, 1, 8, 2, 5, 0, 2), 2, 27.750311603747228)
((-10, -9, -39, -6, -4, -5, -4, -3), 2, 28.483782350626914)
((-6, -2, 9, 6, 1, -3, -7, -3), 2, 28.506395146621966)
((11, -2, 20, 9, 2, 6, 11, 3), 2, 28.53960189984206)
((15, 21, 10, -6, -4, -2, 6, 3), 2, 28.5659328441183)
((-6, -7, -5, 0, 1, -3, -5, -4), 2, 28.58865169372174)
((0, -12, -3, -4, 0, 5, 14, 2), 2, 28.61475684644464)
((-6, 47, -1, -1, -2, 0, -2, -1), 2, 28.637734558081455)
((-10, -9, 10, 0, -1, -3, 1, 2), 2, 28.6592999321485)
((9, -2, 13, 0, 0, 1, -3, 3), 2, 28.68368884099371)
((-33, 29, 0, 1, -1, 1, 2, 0), 2, 28.705630534316324)
((-21, 13, -3, -1, 1, -3, -15, -1), 2, 29.212821083001202)
((-7, -3, 19, 3, 0, 2, -4, -3), 2, 29.237464862614964)
((34, -20, -22, 6, -2, -2, -6, -2), 2, 29.259093526738624)
((0, 8, 21, 2, 0, 0, 3, -3), 2, 29.28348699702936)
((4, -1, 20, 1, -3, -2, -19, 2), 2, 29.30577079876613)
((11, 10, -12, 1, 1, 6, 19, 1), 2, 29.33059475547801)
((14, -11, 31, 4, -1, -2, -11, -1), 2, 29.352600309037935)
((-14, 9, -11, -2, 3, 9, 35, 2), 2, 29.631462570488587)
((-29, 4, 2, 2, 0, 7, 22, -5), 2, 29.65482515409133)
((1, 3, -28, -3, -1, 2, 6, -2), 2, 29.67833484431216)
((-11, -11, -2, 2, 2, 8, 20, -1), 2, 29.700867815010575)
((-4, -3, 10, 0, 0, 4, -7, -2), 2, 29.72279012218972)
((2, -23, -49, -4, 3, 4, 13, 1), 2, 29.743918737848023)
((-2, 12, 4, -2, -2, 0, -28, -3), 2, 29.766464822702314)
((-3, 7, 10, -6, -1, -1, 3, 4), 2, 29.78764475462274)
((14, 12, -57, -6, -4, 1, 14, 3), 2, 29.81020965543981)
((2, -22, 9, -5, -2, 0, 10, 1), 2, 30.135806777167684)
((-20, -16, -32, -8, -2, 0, -6, -2), 2, 30.160590251050557)
((-1, 26, -6, 0, -2, -7, -14, -2), 2, 30.180901227599026)
((28, -4, -17, -2, -2, 0, -4, 3), 2, 30.205375663547777)
((-3, 3, -7, -1, -2, -5, -16, 1), 2, 30.228302629103162)
((13, -56, 0, -7, -1, 4, -1, 3), 2, 30.25263566024073)
((-21, 15, -26, 1, 0, 2, 6, -4), 2, 30.27650912574195)
((-4, 48, 16, 2, 0, 1, 5, 1), 2, 30.29862130309095)
((-1, 2, 0, -3, -1, -1, -2, -3), 2, 30.321592742740176)
((-19, 23, -4, 0, 0, 2, 0, -3), 2, 30.344263697165633)
((-5, -16, -12, -9, -4, 2, 3, -1), 2, 30.366331400420794)
((-22, -55, -3, -6, -4, -6, -9, -3), 2, 30.38812028531842)
((-15, 6, -3, -2, -3, -5, -4, -4), 2, 30.41163453698477)
((16, 9, -3, 3, 1, 2, 2, 2), 2, 30.434422378451732)
((14, -9, -62, -8, -1, -2, -9, 1), 2, 30.460416916120717)
((-3, 8, 26, 2, -2, -4, -10, -2), 2, 30.481961193502222)
((13, 28, 22, 11, 6, 2, 1, 0), 2, 30.498423450391428)
((3, -3, 15, 1, 0, -2, 0, 0), 2, 30.517535336948278)
((20, -18, -25, -9, -5, -14, -38, -1), 2, 30.63518128895047)
((32, 24, 26, 10, 2, 3, 4, 5), 2, 30.657086490708906)
((-1, -12, -36, -3, 1, 4, 3, 2), 2, 30.679394810215356)
((3, -2, 36, 4, -1, 5, 15, 2), 2, 30.69971091839004)
((-12, -5, -79, -9, -2, -2, 5, -3), 2, 30.718835348922074)
((4, 62, 77, 6, -1, 2, 6, -1), 2, 30.74220420451241)
((-4, -25, -51, -9, -1, -3, -3, -2), 2, 30.762158818129464)
((7, -20, 30, -4, -1, 1, 5, 1), 2, 30.783517216605944)
((1, 7, 32, 4, -2, -10, -14, -2), 2, 30.801351328235917)
((-1, 9, 20, 2, 2, 4, 8, 0), 2, 30.819859963622473)
((-5, -1, 19, 4, 0, 0, 1, 0), 2, 30.837933551142356)
((1, 3, 24, 6, 1, 2, 4, 0), 2, 30.85834373913093)
((-11, 7, -15, 1, -1, 3, 4, 3), 2, 30.880520917078623)
((0, 9, 18, 8, 4, 7, 7, 6), 2, 30.900858121938843)
((-15, -30, -56, -16, -9, -1, 6, -5), 2, 30.91913697450722)
((-2, -19, 0, 1, 1, 3, 8, -2), 2, 30.937741400249738)
((3, 27, 40, 4, 0, 0, -4, 1), 2, 30.957053990409563)
((1, 5, 25, 3, 2, 0, -3, 2), 2, 30.975353939663478)
((-6, -9, -40, -6, -3, -3, -3, -3), 2, 30.995501274353842)
((-1, -1, -36, -2, 1, 3, 1, -2), 2, 31.01653752074032)
((11, 12, 3, 6, 3, 11, 25, 3), 2, 31.041527400033072)
((-23, -5, -21, -7, -4, -10, -23, -4), 2, 31.068064179538496)
((-1, 9, -23, -2, -1, 2, 6, 1), 2, 31.08849660457399)
((1, 1, 29, 2, 4, 6, 5, -2), 2, 31.10957903559638)
((0, 1, 4, -4, -4, 0, 5, 3), 2, 31.13064322083668)
((0, 3, 17, 4, 0, 1, 8, 1), 2, 31.14946032397667)
((-6, -17, 17, -1, 1, -4, -24, -3), 2, 31.168831642747588)
((2, 5, 7, 2, 0, 1, 6, 0), 2, 31.18888774852751)
((-8, -9, 19, -1, -3, 1, 10, 1), 2, 31.2096012726433)
((8, 20, 4, 4, 2, 4, 0, 0), 2, 31.229821590462016)
((1, -17, -64, -4, -3, -2, 3, -1), 2, 31.25046612271429)
((0, 1, -38, -3, -2, 1, 11, 2), 2, 31.269676080349864)
((-3, 2, 18, -4, -3, -9, -13, -1), 2, 31.28943797289361)
((1, 14, -4, -1, 0, -3, -10, -2), 2, 31.310174304237012)
((11, 9, -1, 3, 1, 3, 5, 4), 2, 31.330476157894438)
((25, 4, 80, 5, 1, 2, 1, 3), 2, 31.349065188758317)
((-15, -2, -12, -1, 0, -3, -4, -5), 2, 31.369702308661616)
((-1, -12, -6, -4, 0, -10, -18, -4), 2, 31.389699115649748)
((4, 1, -28, -6, -4, -3, 2, -2), 2, 31.409618378064007)
((-2, 1, -9, -4, -1, 5, 16, 0), 2, 31.429350621211864)
((-5, 3, 29, 4, 1, 6, 18, 2), 2, 31.450150812792575)
((-28, 24, -12, 0, -2, 5, 14, -2), 2, 31.469446867712378)
((-14, -21, -36, -4, -3, 6, 8, 1), 2, 31.4914757986806)
((-18, 44, 39, 3, 1, -1, -9, -2), 2, 31.51126106863265)
((37, -20, -15, -4, -3, -9, -5, 0), 2, 31.535497169052874)
((11, -17, -70, -2, -1, -4, -14, -2), 2, 31.55797141114019)
((5, -21, -13, 2, 1, 2, -3, 1), 2, 31.57995244693043)
((-22, 22, 4, 0, -2, -1, -7, -4), 2, 31.598700558206897)
((14, -28, -25, -5, -3, 0, -15, 1), 2, 31.619103904027185)
((-1, -9, -18, 1, 2, 4, -3, 1), 2, 31.640601996772777)
((-19, -22, -15, -8, -4, -12, 11, 0), 2, 31.658836375247315)
((4, 6, 52, 3, -5, -13, -32, -4), 2, 31.679039587645324)
((-10, -8, 27, -5, -4, 5, -4, -5), 2, 31.698865910607072)
((40, 30, -14, 2, 0, 3, 5, 2), 2, 31.71714533335614)
((4, 21, 16, 3, 0, -4, -6, -3), 2, 31.741075246745694)
((-38, 0, 21, -5, -4, -5, -10, -3), 2, 31.760414635397957)
((5, 20, 22, 13, 5, 23, 23, 6), 2, 31.777899226264804)
((3, -2, -2, -2, 1, 4, -9, 1), 2, 31.799582057554037)
((15, -8, 6, -2, -2, 2, -9, 0), 2, 31.818313063409793)
((-15, 17, 20, -2, -2, -2, -4, -7), 2, 31.84130274884111)
((12, 11, -10, -2, -2, -4, -6, -4), 2, 31.8623675042621)
((-7, -6, -65, -9, -4, -4, -5, -4), 2, 32.04132555606872)
((-7, -7, 4, -3, -1, 0, 1, -3), 2, 32.066425480234685)
((-24, 56, 15, 3, -3, -3, -9, -3), 2, 32.08569815774619)
((-5, 3, 0, -2, -2, 4, -2, 1), 2, 32.10616251290034)
((-7, -30, -27, -7, -5, -18, -52, -6), 2, 32.12661204335654)
((-6, 18, -7, 2, -1, 7, 22, 3), 2, 32.146847756053894)
((-2, -13, 5, -1, -1, -1, -5, 1), 2, 32.165629507991085)
((0, -20, 27, -2, -4, 0, 7, -1), 2, 32.186740448047985)
((8, 66, 32, 9, 5, 1, 1, 5), 2, 32.20797625767606)
((5, -1, 1, 1, -1, 1, -1, 3), 2, 32.61767161013325)
((-2, -11, -21, 1, -2, 3, 9, 0), 2, 32.638632022487926)
((15, 4, -39, -4, -2, -10, -1, 0), 2, 32.65892361289293)
((-5, -6, -64, -1, 4, 1, -2, -2), 2, 32.67896546415559)
((5, -38, -5, -1, -2, -3, -11, -2), 2, 32.69954442562848)
((-16, -10, 14, -3, -2, 2, 19, 1), 2, 32.724480137755656)
((-1, 11, -3, 0, -3, -2, -1, -2), 2, 32.74552949829801)
((-5, -16, -17, -6, -10, -33, -53, -11), 2, 32.93869132127971)
((1, -1, 9, 2, 0, 1, -3, 0), 2, 32.95889168277427)
((3, -2, 21, -3, -1, 4, 5, 3), 2, 32.97854296026411)
((5, -12, -30, 0, 2, 3, 9, 1), 2, 32.99762462724437)
((-2, 11, -5, 4, -1, 0, -11, 0), 2, 33.01996259614672)
((-3, -16, -24, -2, 4, 11, 31, 2), 2, 33.040052912768054)
((6, 15, -6, -4, -2, -8, -2, -1), 2, 33.059018262887506)
((5, 29, 14, 8, 3, 16, 7, 5), 2, 33.08089780651488)
((8, 7, 2, 2, -1, 3, 2, 3), 2, 33.1004156617232)
((1, 11, 7, -9, -2, 0, 3, 0), 2, 33.12266012099234)
((-7, 4, 27, -9, -2, -5, 8, -1), 2, 33.14455734022112)
((5, -7, -7, 3, 0, 5, 19, 5), 2, 33.16375703460427)
((3, 1, 12, -3, 1, 3, 2, -3), 2, 33.18186711368833)
((9, 9, 16, 2, -3, 1, 6, 0), 2, 33.21843052063199)
((3, -6, -12, 3, 0, -1, 6, 1), 2, 33.24918492670327)
((-12, 16, -1, 7, 0, -5, -8, -1), 2, 33.27698408625694)
((-14, 7, 10, -4, 1, -5, -14, -3), 2, 33.302267038424475)
((-3, -1, -31, -3, -2, 2, -3, 2), 2, 33.330010320270496)
((-5, -10, 45, -2, -2, 0, 0, -2), 2, 33.35519406099793)
((-12, 2, -6, -4, -3, -1, 5, -2), 2, 33.37972209393157)
((-1, -10, -57, -3, 1, 3, 1, 2), 2, 33.406599841489765)
((-25, -14, -18, -10, -3, -2, -1, -2), 2, 33.44276412195025)
((-27, 56, 22, 5, 0, 4, 9, 2), 2, 33.46811891688476)
((-7, 14, 45, 5, 1, -3, -2, -2), 2, 33.491480930306814)
((4, -1, 12, 5, 3, 1, -4, 1), 2, 33.512541694462975)
((1, -6, -15, 1, 0, 1, 3, 1), 2, 33.54114822987405)
((-10, -24, -23, -10, -4, -1, -2, -3), 2, 33.5612904329382)
((-1, -14, -5, -10, -7, -3, -2, -5), 2, 33.58091092067076)
((7, 25, 30, 11, 4, 2, -2, 3), 2, 33.6001522382443)
((-2, 4, 6, -4, -4, -2, 0, -4), 2, 33.62104194819338)
((3, 10, 20, 2, 1, -1, -3, -1), 2, 33.6424801719665)
((2, 3, 13, 2, 1, 1, 1, -2), 2, 33.66252316359054)
((-3, -1, -26, -2, 2, -2, -16, -1), 2, 33.68029569570597)
((2, 5, -2, -5, -6, -6, -5, 1), 2, 33.700929394525126)
((0, -5, -25, -1, 2, 6, 4, 0), 2, 33.72003443891369)
((0, 7, 30, 6, 0, 1, 2, -2), 2, 33.74047313593678)
((13, 30, 57, 13, 2, -7, -16, 1), 2, 33.760762445619015)
((-4, -9, 11, -5, 0, 4, 8, -2), 2, 33.780442232143365)
((-5, -16, -61, -9, -6, -11, -16, -5), 2, 33.80002166686623)
((-11, -19, -31, -14, -8, 0, 2, -3), 2, 33.82019123860351)
((-1, -5, -6, -7, -6, 0, -5, -4), 2, 33.83961387363656)
((-6, -13, 13, 4, 3, -1, 2, 1), 2, 33.85901655234544)
((-8, -13, -67, -11, -8, -9, -9, -5), 2, 33.880638944481504)
((2, 21, 24, 6, 0, -1, 8, 1), 2, 33.899616268395455)
((2, 8, -12, -7, -5, -8, -3, 0), 2, 33.92243204871624)
((-7, -14, 9, -11, -9, -4, 9, -3), 2, 33.94300131711739)
((1, 11, 43, -4, -4, 2, 25, 0), 2, 33.962144563612206)
((-1, -7, -13, -7, -3, 1, -2, 1), 2, 33.9812598712532)
((-1, 4, 11, 5, 3, -3, -11, 0), 2, 34.00424100397416)
((5, 11, -9, 3, 2, 11, 20, 8), 2, 34.02662287678965)
((-2, -3, 8, 6, 2, -2, -2, -1), 2, 34.0450265989292)
((-1, -6, -16, -1, -3, -3, -3, -1), 2, 34.06507073091463)
((-4, -24, -9, -5, -1, 4, 7, -2), 2, 34.08440555812137)
((5, -5, 7, -1, 0, 1, 2, 2), 2, 34.10359612961347)
((-1, -18, -30, -6, -4, -8, 0, -3), 2, 34.124712771477284)
((1, 13, 17, 2, 1, -6, -13, 0), 2, 34.14439597908577)
((8, -32, 6, -5, -5, -6, -1, -1), 2, 34.1631988277085)
((-15, -11, -2, 3, 0, -2, -9, -5), 2, 34.18204215916024)
((4, -13, -2, -6, -7, -4, 0, 3), 2, 34.20306358084877)
((14, 11, 22, 2, -2, 0, -5, 3), 2, 34.22203178187168)
((-5, 9, 10, -1, -3, -16, -32, -7), 2, 34.24166709430219)
((2, -1, -23, -4, 0, -3, 6, -1), 2, 34.26236237263589)
((-10, 12, 56, 0, -6, -4, -3, -2), 2, 34.2808031565203)
((7, -28, -7, 1, 1, 5, 19, 4), 2, 34.3009368068741)
((-10, -27, 0, 2, 0, 13, 24, 0), 2, 34.323280477583346)
((1, 1, -25, -3, 3, 3, -3, 0), 2, 34.342603330995594)
((3, -21, 6, 4, 0, 5, 6, 4), 2, 34.362662287678965)
((-22, 23, -3, 3, -2, 3, -3, -10), 2, 34.38380572803521)
((-33, -26, 11, 3, -1, 3, 1, -6), 2, 34.403700472679795)
((27, -67, -4, -3, -3, -3, 3, -1), 2, 34.42453544528261)
((11, 2, -16, 1, 5, 5, -4, 3), 2, 34.445028879651964)
((-7, -12, 6, 2, 2, 8, 6, -3), 2, 34.46513174024849)
((-12, 44, 70, 9, -1, 19, -1, 2), 2, 34.483128923555874)
((-8, 61, 32, 1, 2, 0, 7, -1), 2, 34.95568270584948)
((-1, -23, -25, -5, 0, -1, 0, -1), 2, 34.97606210408078)
((11, -16, -15, -7, -4, 1, 7, -6), 2, 34.996558959534276)
((8, 64, -17, 2, 1, -8, 15, 0), 2, 35.016121859017126)
((-21, 6, 12, 3, -3, -5, -20, -2), 2, 35.036565687666425)
((-10, -26, 17, -1, 0, 5, 14, 2), 2, 35.05669078530986)
((7, 13, -9, 8, 5, 5, 4, 3), 2, 36.30639457644127)
((-1, -57, 27, -10, -7, -15, -31, -5), 2, 36.32628532982102)
((16, 14, 51, 5, 3, 1, 6, 2), 2, 36.34522388144803)
((5, -12, 7, -1, -3, -1, 2, 0), 2, 36.368132601221326)
((-20, -35, 36, 4, 0, 1, 1, -2), 2, 36.38755637661575)
((-11, -3, 19, -8, -9, -4, 2, -5), 2, 36.408466613069685)
((7, 11, -12, 0, 3, 2, 6, 1), 2, 36.42686862466716)
((9, -14, -14, 4, 3, 5, 8, 2), 2, 36.447531402701514)
((4, 23, 37, 3, -5, -5, 10, -1), 2, 36.469872792688)
((8, -12, 22, -1, -4, -4, -3, 1), 2, 36.489439683435684)
((31, -8, -18, -8, -7, -7, -4, -4), 2, 36.508169548930056)
((7, -16, -38, -9, -4, -6, -6, -3), 2, 36.5393418974473)
((0, 6, 41, 2, -3, -8, -4, -1), 2, 36.560491039610454)
((-14, 4, -23, -10, -2, -4, -9, -2), 2, 36.579959859279406)
((-17, -11, 10, -2, 1, 4, 8, -2), 2, 36.599491398824284)
((6, 0, -20, 2, 2, -3, 3, 1), 2, 36.619411231419235)
((4, 3, -27, -1, 0, 0, -8, -1), 2, 36.63895360439724)
((-8, -23, -33, 1, 1, 1, 7, -3), 2, 36.658137903901746)
((-6, -15, 2, -1, -5, -4, -5, 0), 2, 36.678085675350516)
((3, 29, 94, 9, 2, 14, 27, 6), 2, 36.696691811635105)
((40, 36, 7, -4, -3, 2, 12, 1), 2, 36.71707520113124)
((-21, 9, 41, -1, -1, 2, 7, 1), 2, 36.737798988499456)
((-3, -51, -67, -5, -1, -1, -6, -2), 2, 36.756797409098944)
((1, -10, -48, -3, 0, 3, 9, 0), 2, 36.77678737391879)
((-2, 2, 17, -4, -3, -4, -6, -2), 2, 36.799379643409)
((3, -11, 10, 3, -1, -2, 3, 1), 2, 36.81950588141382)
((42, 8, -53, -3, -2, -2, -3, 4), 2, 36.8383469321428)
((4, 4, 32, 3, -1, -2, -6, -1), 2, 36.85707679763717)
((13, 14, 30, 4, -1, -4, -6, 0), 2, 36.87534595713382)
((9, -7, 6, 1, 0, 2, 0, 1), 2, 36.89475091656546)
((4, 4, 12, 1, -4, -24, -40, -4), 2, 36.91607168311638)
((-24, 19, 7, -3, -3, -8, -23, -8), 2, 36.935190982022206)
((4, 17, 18, 3, 1, 6, 15, 1), 2, 36.95456059025105)
((14, -17, -3, 7, 4, 2, -3, 1), 2, 36.974903496918174)
((14, -17, -3, 7, 4, 2, -3, 1), 2, 36.9929103732973)
((-10, -18, 46, -6, -6, -3, -1, -4), 2, 37.01120576110569)
((10, -4, -6, -1, -1, -7, -5, 0), 2, 37.03157489608457)
((-23, 15, 13, 0, -2, -4, 8, -6), 2, 37.050636036559986)
((3, 29, 32, 3, 0, 0, 4, 1), 2, 37.07072635318132)
((6, -12, 3, 5, 3, 1, 0, 1), 2, 37.092512387175496)
((-4, -21, -10, 1, -1, -2, -1, 0), 2, 37.11155870295297)
((8, 6, -1, 0, 1, -5, -7, -1), 2, 37.13169691475228)
((41, 19, 46, 1, 0, 2, -16, 3), 2, 37.15196740847175)
((1, 1, -31, 0, 0, 1, -3, 0), 2, 37.17174469589413)
((-5, -9, -17, -1, 0, -1, 4, 3), 2, 37.192057382984665)
((-41, 77, 12, 0, -2, -7, -13, -8), 2, 37.215071586185665)
((8, -12, 5, -5, -3, -9, -21, 0), 2, 37.235641994948196)
((-14, -2, 31, 0, -1, 0, 14, -8), 2, 37.25502471733292)
((-13, -35, -100, -21, -8, -4, -12, -2), 2, 37.27413147226356)
((-13, -35, -100, -21, -8, -4, -12, -2), 2, 37.29265208144461)
((4, 11, 16, 4, 4, 5, 9, 0), 2, 37.31176225745939)
((-16, 2, -18, -10, -4, -4, 0, -2), 2, 37.333884127880125)
((-3, -2, 7, 3, 2, 10, 20, 3), 2, 37.35426751737626)
((-10, -16, 27, 1, 1, 5, 4, 0), 2, 37.372829179567006)
((4, -9, 0, -6, -2, 4, 1, -1), 2, 37.39279576697856)
((20, -22, -15, -5, 0, -3, -7, -4), 2, 37.411821556251176)
((-15, -28, 34, -4, -5, -8, -32, -6), 2, 37.43129322682358)
((10, 30, 49, -1, -6, -9, -3, -4), 2, 38.474158270756)
((-17, -20, -84, -8, -3, -3, -4, -1), 2, 38.496688390550965)
((0, -9, -7, 2, 0, 1, 7, -1), 2, 38.51909021969062)
((-1, -1, 19, -2, 0, -1, 8, 0), 2, 38.546147574166255)
((-4, -1, 21, -2, -2, -2, -7, -3), 2, 38.56801856508328)
((-7, 4, 55, 0, -4, -1, -5, -1), 2, 38.587828352805005)
((-6, -13, -16, -4, 2, 4, 5, 1), 2, 38.6066505875712)
((17, -4, -38, 5, 4, 5, 12, 5), 2, 38.62561650787134)
((7, 30, 19, 10, 1, -1, -4, 1), 2, 38.64525467120531)
((-12, -23, 1, -11, -9, -10, -15, -6), 2, 38.664250811082034)
((-5, 8, -12, 4, 4, 3, 5, 2), 2, 38.68335129402508)
((-3, 9, -15, -8, -3, -1, 3, -2), 2, 38.702506514314386)
((-7, -12, -3, -8, -6, -8, -8, -4), 2, 38.720612031952925)
((15, -2, 10, 0, -3, -6, -33, 2), 2, 38.74243797859542)
((-1, -2, -34, -4, 0, 5, 2, -1), 2, 38.76354549756818)
((10, 22, -38, -2, 0, -3, 7, 0), 2, 38.782738349783045)
((-2, 20, 2, 9, 2, -1, 1, -1), 2, 38.80186620139922)
((-4, 1, -4, -1, 0, 3, 14, -2), 2, 38.822727402313795)
((-8, -24, -31, -7, -4, -2, 1, -4), 2, 38.8409287103083)
((11, -2, 6, -8, -6, -26, -37, -1), 2, 38.86282592953707)
((-1, -12, 1, 4, 0, 3, 3, 0), 2, 38.88439073342342)
((13, -3, -18, 4, 4, 2, 1, 1), 2, 38.90393253622073)
((-7, 5, 32, 0, -1, -3, 1, -1), 2, 38.92258827822537)
((-1, 6, 18, -1, -1, -4, -10, -4), 2, 38.94294543940975)
((-17, -7, -20, -4, 0, 14, 11, 0), 2, 38.96447717281607)
((6, -5, 17, 3, -2, -10, -13, 2), 2, 38.98377208737449)
((3, -16, 9, -7, -4, -2, -1, 0), 2, 39.00490754520107)
((-14, 41, 26, 2, 2, 3, 0, 0), 2, 39.02373434141279)
((-11, 5, 36, -4, -2, 0, 0, -5), 2, 39.04285820176414)
((-16, -5, 6, 0, 1, -9, -13, -5), 2, 39.06340580329906)
((4, -24, -34, -5, 0, 7, 7, 1), 2, 39.08212084409549)
((5, 10, 6, -6, -5, -14, -17, -10), 2, 39.10242896974051)
((-11, 11, 8, 5, 6, -1, -2, 2), 2, 39.122241038185)
((-7, 3, 3, 5, 2, 2, 11, -1), 2, 39.14097774584766)
((-4, 18, 8, -2, 1, 2, 5, 1), 2, 39.15833005479436)
((-6, 5, 32, 4, 4, 5, 2, 2), 2, 39.180491267682726)
((8, 23, -44, 0, 0, 0, -6, 3), 2, 39.19932376570135)
((-6, -48, -7, -4, 0, 9, 20, -1), 2, 39.21694405957248)
((-16, -10, 18, -2, 0, -2, -5, -1), 2, 39.237450037917014)
((-7, -17, -39, 2, 1, 1, -3, 0), 2, 39.25765153977295)
((-1, -18, 33, 6, 3, -2, -5, -2), 2, 39.281099080298546)
((-9, -43, -21, -8, -1, 1, 6, -1), 2, 39.30418968771204)
((-34, -42, -1, -1, 0, 0, -3, -4), 2, 39.32737779602356)
((-4, -2, 27, 4, -3, 1, 6, -2), 2, 39.34816886471323)
((15, 19, -7, 1, 0, -1, 3, -1), 2, 39.36849865722447)
((13, -11, -35, -7, -4, -2, 0, -11), 2, 39.38753813083366)
((8, 1, -22, -5, -1, -7, -12, -1), 2, 39.4069784414681)
((-8, -6, 5, -3, -1, -2, 2, 0), 2, 39.426949020144484)
((-12, -13, -24, 0, -1, -3, 0, -1), 2, 39.44605406453305)
((6, 23, 26, 4, -3, -1, -1, 0), 2, 39.46504279206081)
((3, 3, -11, 0, 4, 6, 5, 4), 2, 39.48478358791901)
((35, -1, -5, 2, 0, 3, 4, 3), 2, 39.50637347975574)
((-9, -2, 13, 1, 0, 7, 1, -2), 2, 39.53360987096811)
((11, -2, 19, -2, -3, -2, -2, -1), 2, 39.55316649846336)
((-4, -4, -7, -5, 0, 5, 12, 0), 2, 39.5734147551359)
((38, 29, 14, 1, 1, 5, 17, 3), 2, 39.594499466881054)
((-39, 10, 4, 1, 1, -3, -9, -4), 2, 39.6132544203258)
((-6, -6, 31, 1, 0, -3, -31, -5), 2, 39.63318850743801)
((3, -33, -12, -1, -4, -6, -12, -2), 2, 39.65338031622221)
((19, 8, -28, -9, -7, 5, 7, -2), 2, 39.67430309665133)
((-58, 20, 0, 10, 5, 6, 1, 1), 2, 39.69731216822611)
((-7, -5, -14, 0, -4, -16, -16, -7), 2, 39.7175632758021)
((-24, 64, -4, -1, 0, -7, -10, -6), 2, 39.73630967653649)
((4, -15, -42, -4, -3, -2, -2, 1), 2, 41.35743373074927)
((22, 1, 25, 6, 3, 0, 3, 1), 2, 41.37757935489757)
((-39, -13, 19, 4, 2, 1, -3, -5), 2, 41.39760410073952)
((4, 2, 2, 0, -1, -1, 1, 3), 2, 41.41679239150887)
((-16, -43, 3, -8, -1, 1, -3, -7), 2, 41.43603313890172)
((-23, -15, -30, 0, -3, -6, -3, -7), 2, 41.4564724061055)
((13, -3, 0, -5, -5, -4, -5, 0), 2, 41.47670013627319)
((-4, 45, 38, 5, -1, 0, 3, 2), 2, 41.496552117365994)
((-8, 8, 44, -2, -4, -4, -5, -4), 2, 41.516414931891916)
((-4, -10, -12, 3, 1, 3, -1, -4), 2, 41.54392558001631)
((12, -2, -49, -1, -2, -5, -4, 0), 2, 41.56458322642445)
((21, -35, -28, -8, -3, -1, -3, 2), 2, 41.585772851416614)
((10, -13, -27, -3, -1, 1, 8, 1), 2, 41.60490127321348)
((-17, -33, -52, -4, 2, -1, -6, -4), 2, 41.6265795430572)
((2, -13, -47, -2, -1, 3, 1, 2), 2, 41.646463454268655)
((11, -7, -18, -7, -3, 2, 6, 0), 2, 41.66406322163493)
((5, -35, 53, 1, -1, 1, -4, 0), 2, 41.68539767252242)
((-9, 17, 10, 3, -1, 1, 0, 1), 2, 41.70767406191022)
((0, 14, 32, 6, 2, -3, 1, 3), 2, 41.729623737762495)
((4, 14, 11, 1, -1, 1, 7, 3), 2, 41.75843097677654)
((12, 8, -2, 0, -1, -6, -10, 1), 2, 41.78380629821591)
((6, -27, 31, -3, -1, 1, 4, 1), 2, 41.81140133308245)
((-11, -2, -13, 4, 0, 3, 6, 0), 2, 41.83919251010645)
((-32, -60, -29, -7, -2, -4, -5, -3), 2, 41.85919958034701)
((16, 4, 43, 4, -1, 2, -2, 0), 2, 41.8797141114019)
((15, -16, -12, -3, -4, 1, -4, -1), 2, 41.89970977802866)
((8, 7, 40, 3, 0, -1, -5, 2), 2, 41.91883591910276)
((5, -6, -27, -4, -1, 5, 6, 1), 2, 41.93759885507718)
((-2, -5, -26, -8, -2, -4, -1, -3), 2, 41.95774219850271)
((35, 29, 16, 1, -3, -2, 3, 4), 2, 41.97695044559621)
((15, -49, 22, 4, 3, 1, 7, 7), 2, 41.996418124903784)
((-10, 5, -19, 5, 2, -4, -1, -1), 2, 42.01541426478051)
((-16, -19, 26, -2, -4, 5, 12, -2), 2, 42.035202385636005)
((-2, 33, -5, 1, 1, -1, 0, 0), 2, 42.055533888689325)
((9, -2, -95, -1, 3, 1, -10, 4), 2, 42.07557973121682)
((-21, 33, 17, -4, 0, 0, 0, -4), 2, 42.09536728189163)
((11, -1, 34, 1, -2, 0, -2, 1), 2, 42.11540172080532)
((-13, -15, -59, -6, -4, -12, -28, -7), 2, 42.135691030487564)
((-2, 17, 12, 1, -1, 0, 9, -2), 2, 42.15731285244294)
((-16, -9, 3, 0, -2, -2, -1, -2), 2, 42.17775668109224)
((9, -11, 20, 5, 1, 0, 2, 0), 2, 42.19776831277832)
((0, 32, 14, 6, 1, -4, -8, 0), 2, 42.217420160448846)
((-3, -11, -31, -6, -2, -1, 4, -1), 2, 42.23892224445927)
((35, 23, 28, -2, -1, -2, -4, 2), 2, 42.2588312436211)
((-1, -14, 0, 0, 1, 2, 2, 0), 2, 42.27823677323344)
((8, -16, -15, -4, -1, 2, -1, 0), 2, 42.2995546888809)
((6, -9, -11, 2, -1, 1, 2, -1), 2, 42.31961763682911)
((-8, 0, 15, -2, 1, 3, 13, 1), 2, 42.33918509775748)
((-26, -12, 43, -7, -5, -3, -1, -5), 2, 42.35892133217016)
((-4, 5, -50, 2, 2, -1, -2, 1), 2, 42.378602829236584)
((11, 17, 2, -8, -3, -1, 1, -2), 2, 42.3972659835902)
((3, -3, 20, 0, -3, -5, -5, -3), 2, 42.41644857255264)
((-21, 1, 13, 6, 2, -3, -11, -1), 2, 42.436270334068865)
((-10, -1, -2, 2, 1, 6, 1, 2), 2, 42.45723872895321)
((12, 12, 16, 4, 1, 3, 7, 3), 2, 42.476227456480956)
((-5, 0, 34, 5, -1, -2, 4, -2), 2, 42.49699400740094)
((-33, 4, -26, -5, 2, 1, 0, -9), 2, 42.51896991156497)
((-12, 25, 18, 1, 1, 3, 5, -3), 2, 42.548784089678016)
((10, -7, -4, 1, 1, 5, 15, 1), 2, 42.568156548810315)
((-13, 27, -2, 0, 1, 3, 18, 1), 2, 42.586995318816534)
((-41, 10, -13, -1, -1, -6, -25, -11), 2, 42.60917078622215)
((10, -10, 18, 2, -1, -2, -2, 3), 2, 42.62912311911645)
((1, 0, -23, -9, -2, -6, -3, -3), 2, 42.646820387380764)
((4, 3, 33, 5, 0, -3, 1, 2), 2, 42.66625043476277)
((-52, -9, -12, -4, -4, -3, -4, -8), 2, 42.68576030744143)
((-15, 5, 5, 0, 0, -3, -17, -4), 2, 42.705143029826154)
((1, 7, 11, 0, 0, 1, 0, 3), 2, 42.72454855943849)
((-19, -4, -31, -4, -2, 2, 8, -2), 2, 42.747641447574736)
((17, -2, 1, 2, 4, 4, -2, 4), 2, 42.765746395032586)
((-8, -12, -18, -2, -2, -4, -9, -4), 2, 42.785711271902066)
((3, -26, -7, -3, 0, -1, 4, 2), 2, 42.806006283391206)
((-8, 12, -12, -5, -2, 0, -5, 1), 2, 42.82495623863202)
((-4, -5, -1, -1, -1, -4, -15, -6), 2, 42.843905053511456)
((14, 9, 19, 4, -6, -14, -17, -6), 2, 42.863870500561625)
((-2, -12, -8, 1, 2, 1, 5, 1), 2, 42.88326348619878)
((16, -9, -13, -7, -1, -1, 6, 0), 2, 42.90591334393869)
((-7, -20, -13, -2, -1, -3, -12, -4), 2, 42.92734928698905)
((7, 13, 32, 8, 3, 1, 1, 0), 2, 44.1271120918219)
((11, -55, 14, 2, 2, 4, 11, 2), 2, 44.14646402444935)
((-5, -10, -7, -1, -2, -7, -14, 0), 2, 44.166966581709744)
((-11, 11, 4, -7, -3, -1, 0, -4), 2, 44.190080566531535)
((-12, -12, -51, -9, -5, -2, 0, -5), 2, 44.21031741959027)
((-3, -4, -24, -3, 0, -4, -5, -2), 2, 44.23013747056442)
((1, 26, 57, 8, 1, -3, -11, 0), 2, 44.24961028149821)
((-2, -8, -76, -10, -2, 1, -1, 1), 2, 44.27115855014454)
((-2, -13, -13, -11, -3, 0, 0, -3), 2, 44.292439404047144)
((-18, 9, 32, 3, 1, -4, -2, -3), 2, 44.3118084420953)
((7, -4, 2, 2, 4, 2, 0, -1), 2, 44.33045392084752)
((-1, -7, -20, -6, -1, -1, 1, 1), 2, 44.350826476910534)
((-1, 46, -11, 1, -1, 3, 3, 2), 2, 44.3712309630922)
((-5, -5, 5, -3, -3, -14, -28, -3), 2, 44.39286019739656)
((-4, -2, 6, 3, -2, 1, 3, -2), 2, 44.41266371313069)
((14, -24, -27, -5, 1, 3, 4, 1), 2, 44.43246494814207)
((3, 17, 6, -2, 0, 2, 6, 0), 2, 44.45272574878979)
((-7, 13, -10, -1, -1, 2, 0, -1), 2, 44.47205373382825)
((-7, 5, -13, -2, -4, -3, -8, -2), 2, 44.49092614449519)
((-5, -36, -23, 4, 1, -1, -5, -3), 2, 44.51161458066061)
((-2, -10, -8, -1, 0, -7, -9, -2), 2, 44.53204643551541)
((4, -37, 18, -1, 0, 4, 7, 3), 2, 44.560719682067244)
((-12, 7, -3, -2, -1, -2, 3, 0), 2, 44.58152557545486)
((4, -2, -9, -4, -3, -4, -7, -2), 2, 44.603843017852356)
((-3, 4, -57, -7, -4, 7, 31, 4), 2, 44.624016010673785)
((13, 12, 16, 3, 3, 8, 6, 3), 2, 44.64356807672351)
((-8, 2, 4, -1, 1, -2, -8, -1), 2, 44.66262978737962)
((-33, 37, -17, -1, -2, -11, -17, -12), 2, 44.68246067178689)
((13, 6, 8, -4, -4, -3, -1, -2), 2, 44.70260971701932)
((6, -4, 12, 9, 3, -3, -14, -4), 2, 44.72188923669911)
((2, -3, -11, -4, 0, 2, 4, 3), 2, 44.742364995467064)
((-38, -13, -18, -3, 1, -7, -5, -5), 2, 44.76168613833724)
((-10, 48, 23, 8, 3, 3, -2, 0), 2, 44.7813066260698)
((18, 68, -2, 4, 5, 5, -1, 1), 2, 44.80206006283391)
((-52, -20, 3, 2, -5, 0, -3, -15), 2, 44.82386947423639)
((30, -9, 19, -6, -4, 1, 7, 11), 2, 44.84320886288865)
((15, -24, 30, -2, 3, 0, -1, 2), 2, 44.86288408796748)
((10, 7, 8, -6, 0, 4, 4, -2), 2, 45.65766465392883)
((2, 3, 47, 11, 0, -2, -1, 0), 2, 45.67592126945029)
((-27, -9, -25, -5, 2, 11, 24, 2), 2, 45.6999241659682)
((19, 18, 45, 5, -1, -3, -9, 2), 2, 45.71919912420246)
((0, -28, -10, -3, 0, 4, 0, 1), 2, 45.7395939173124)
((-31, 11, -14, 4, 2, 0, -5, 0), 2, 45.760710559176204)
((4, -3, -35, -2, 0, -1, -6, -1), 2, 45.78081969176032)
((-17, 4, 79, 2, -1, -2, -2, -4), 2, 45.80525592560282)
((10, 17, 0, 1, -4, -22, -29, -2), 2, 45.82565242925483)
((14, 4, -39, -3, 1, -6, -16, -2), 2, 45.84636025156372)
((-20, 38, 28, 0, 1, 11, 9, -2), 2, 45.867232856092095)
((20, 6, -33, -5, -1, 3, 6, 6), 2, 45.887765632929074)
((-1, -18, -11, 1, -2, -3, 2, -1), 2, 45.90731712879812)
((2, -30, -84, -7, 0, 0, -17, -2), 2, 45.926710684615955)
((-2, -16, 34, -2, -4, -5, 0, -3), 2, 45.946393322043754)
((12, -25, 27, 0, 4, 9, 16, 2), 2, 45.96610503868676)
((-2, -13, -3, -5, -1, 3, 6, 0), 2, 45.98528933819127)
((-7, -6, -2, -6, -8, -7, -3, -5), 2, 46.00540873402781)
((11, 24, 54, 8, 2, 2, 1, 3), 2, 46.02493343140441)
((-10, -8, 9, 0, -1, 1, 4, -3), 2, 46.04466054292605)
((-2, 4, -35, -4, -1, 0, -5, -1), 2, 46.064621998711395)
((-45, 17, 13, -3, 3, 2, 4, -3), 2, 46.084967186101274)
((-15, 2, -8, -3, -3, 3, 5, -1), 2, 46.103287091679356)
((30, 6, -35, -3, 1, 0, 1, 2), 2, 46.12563931509896)
((18, 13, 33, 4, 0, 3, -2, 3), 2, 46.14672003557928)
((-1, 2, 5, 3, 0, 0, 18, -1), 2, 46.168459314756845)
((-21, -19, -26, -6, -5, -12, -25, -4), 2, 46.18926520814446)
((7, 11, 14, 0, 3, 6, 7, 4), 2, 46.208468323611754)
((-4, -19, -13, -5, -4, -1, 0, 0), 2, 46.229581544391415)
((-11, 10, -6, -1, -2, -6, -7, -6), 2, 46.25191552202893)
((-10, 33, -22, -4, -2, 1, 6, 0), 2, 46.27201439136062)
((-7, -11, -14, -6, -2, 3, 3, -2), 2, 46.29269712571914)
((-14, -56, -26, -4, -4, -7, -6, -6), 2, 46.312011996601726)
((9, 7, 6, 4, 1, 1, 9, 2), 2, 46.332740915596155)
((30, 0, 25, 2, 3, 19, 30, 6), 2, 46.35410159479539)
((3, -9, -10, -7, -5, -22, -21, -9), 2, 46.37484647884915)
((5, 1, 11, -1, -1, -9, -11, -1), 2, 46.39368410849398)
((8, 2, 15, 0, 2, -5, -6, 0), 2, 46.413713985962154)
((-31, -29, 9, 6, 3, 7, 9, -1), 2, 46.43421996430669)
((15, 2, 4, -1, 1, -1, -5, 1), 2, 46.45295838251142)
((-19, -9, -48, 2, 3, 3, 4, -1), 2, 47.42482680761533)
((-19, -9, -48, 2, 3, 3, 4, -1), 2, 47.44276412195025)
((6, 10, 23, 1, -1, -1, 1, 1), 2, 47.46796553827908)
((5, 8, 29, -7, -3, 1, 3, -2), 2, 47.488777703654286)
((-1, 8, 44, 5, 1, 12, 36, 4), 2, 47.508541876920795)
((2, 17, 22, 3, -2, 1, 13, -1), 2, 47.53776990928425)
((0, 6, -14, 2, 1, 0, 3, 3), 2, 47.55698613890742)
((-1, 3, 6, 4, 2, 0, -1, 1), 2, 47.576108858897385)
((-11, -18, -75, -6, -2, 0, 3, -4), 2, 47.59687597999806)
((5, 2, 7, -3, -3, -5, -8, -1), 2, 47.61693721740419)
((-10, 3, -7, -5, -6, -11, -15, -6), 2, 47.6372635888313)
((-5, -3, -5, -3, -4, -5, -14, -3), 2, 47.65538222062572)
((0, 9, 7, 0, 1, 6, 11, 0), 2, 47.67627421129756)
((8, -8, -23, -1, 1, 3, 6, 1), 2, 47.69617294720697)
((11, -25, -7, -1, -1, 0, 1, -2), 2, 47.71539430845635)
((-3, -15, -42, -11, -4, -6, -6, -4), 2, 47.736185377146015)
((9, 8, 42, 5, 2, 2, 2, -4), 2, 47.75618845612175)
((-4, 21, 14, 5, 3, 2, 6, 3), 2, 47.77726404497585)
((-5, 20, -4, 4, 3, -2, -11, -1), 2, 47.79796046367094)
((-6, 0, 8, 0, 1, 4, 5, 0), 2, 47.8178443748824)
((5, 5, -3, -2, 0, -5, -24, -3), 2, 47.839203913720254)
((11, 5, -8, 0, -1, -5, -1, 4), 2, 47.85844352075173)
((-10, -23, -66, -7, 0, -3, -4, -3), 2, 47.88084078844586)
((-4, -3, 8, 0, 1, 0, 2, -2), 2, 47.90084272706021)
((-10, -6, 35, -1, -3, -1, -3, -4), 2, 47.92028930968224)
((7, -2, -19, -2, 0, 2, 3, 0), 2, 47.938080657760445)
((17, 15, 29, 8, 2, 3, 0, 4), 2, 47.958060359327874)
((-38, 3, -16, -9, -3, 5, 4, -2), 2, 47.97731707178005)
((9, 5, -9, 0, 0, 1, 2, 2), 2, 47.999098544328696)
((10, -4, -15, -4, -1, -2, -5, 2), 2, 48.0185291618914)
((5, 1, 8, 2, 0, 1, 13, 3), 2, 48.038405660753895)
((-6, -3, 26, 5, 1, -2, 1, 1), 2, 48.05731057172018)
((-9, 48, 68, 12, 3, -2, -12, -2), 2, 48.07658610013513)
((-21, -1, 2, -2, -2, -1, -19, -5), 2, 48.09635312430509)
((-1, -10, -23, -1, -1, 1, 5, 1), 2, 48.11585615481546)
((1, 10, 8, 0, 4, 4, 9, 0), 2, 48.13640603707315)
((1, 0, -38, 4, -1, 0, -3, -1), 2, 48.15509998118404)
((-3, -3, 13, -5, -3, -3, -1, -3), 2, 48.17596631372482)
((-19, 17, 13, 13, 7, 6, -9, -3), 2, 48.19802546426963)
((18, 3, 20, 1, -4, -8, -26, -3), 2, 48.21767389085601)
((-4, -5, 26, -2, -4, 3, 11, 2), 2, 48.2380361836666)
((0, -5, -4, -3, 0, -1, -12, -3), 2, 49.108101127247224)
((4, -14, -95, -8, -1, -3, 2, 1), 2, 49.131371341578145)
((-7, -32, -32, -7, -3, -1, -2, -2), 2, 49.1516600810797)
((3, -1, -2, 0, 1, 3, 3, 1), 2, 49.17029871766363)
((7, 7, 27, 0, 0, -2, -2, -1), 2, 49.189976793645904)
((3, 8, 0, -4, -4, -4, -4, 0), 2, 49.211163567734616)
((-10, -24, -67, -16, -6, -1, -3, -3), 2, 49.230843924439654)
((-2, -14, -6, 1, 2, 1, 6, 2), 2, 49.25078485372014)
((6, 28, -11, 0, -3, -5, 2, 2), 2, 49.27004099599163)
((-4, -22, 15, -1, -2, -1, 0, -2), 2, 49.288814195218464)
((-5, -2, -30, -2, 2, -3, -6, -2), 2, 49.30592246682974)
((5, 8, 27, 5, -1, 0, 3, 2), 2, 49.327763808350866)
((-5, -6, -32, -4, 0, 7, 5, -4), 2, 49.34492339622426)
((1, -10, -33, -5, -2, -3, -1, 2), 2, 49.36358426985512)
((-2, -4, -30, -5, 0, -5, -5, -1), 2, 49.38394884338847)
((-1, 3, 7, -2, -3, -2, -4, -3), 2, 49.40253559352959)
((-2, 11, 9, 6, 1, 3, 0, -1), 2, 49.424243512769195)
((-14, 8, -40, -9, -2, 1, -1, -2), 2, 49.44809474122349)
((11, 29, 43, 13, 4, 6, 15, 5), 2, 49.46744268258611)
((0, -5, -35, -3, -1, 0, -1, 0), 2, 49.485201530364975)
((-8, -26, -25, -2, -1, -3, -2, -2), 2, 49.50703945080196)
((3, -15, 1, -3, -1, -2, -1, 0), 2, 49.53707257830006)
((0, -1, 29, 6, -2, -7, -14, -1), 2, 49.56248838256844)
((2, -19, -10, -2, 0, 0, 3, -1), 2, 49.58366375304334)
((2, -10, -7, 2, 2, 1, -6, -2), 2, 49.60285774561959)
((-4, 29, 43, 6, 2, 13, 11, -3), 2, 49.62244801377557)
((1, -4, -45, -7, -2, -9, -2, -3), 2, 49.64075309465569)
((9, 5, 32, -1, 0, 19, 31, 8), 2, 49.66193302657612)
((-10, -15, -3, 5, 5, 10, 10, -4), 2, 49.682224616981124)
((3, 5, 4, 1, 0, 6, 5, 3), 2, 49.70134505624833)
((-9, -7, 7, -9, -7, -2, -8, -4), 2, 49.72012395728206)
((3, 1, -48, -6, -1, -10, -12, -2), 2, 49.74166652412149)
((-4, -7, 0, 0, -2, -5, -9, -3), 2, 49.76147688202391)
((-2, -12, 9, -4, -5, -10, -15, -1), 2, 49.781832902846915)
((9, 0, -18, -1, -1, -3, -1, -1), 2, 49.80277164833536)
((0, 3, 12, 3, -1, 3, 8, 1), 2, 49.82107558885411)
((-3, -8, -18, 1, -2, 5, -2, -1), 2, 49.8406122600252)
((-8, 1, 15, 6, 8, 17, 12, 2), 2, 49.86149398744462)
((11, 2, 1, 3, 1, 2, -1, -3), 3, 50.83483233836803)
((-3, 1, -2, 0, -5, -1, -1, 2), 1, 50.91259415108648)
((-70, -10, -12, -4, -1, -8, -12, -22), 1, 50.93205555840646)
((-20, 0, -36, 3, 1, 5, 4, 0), 1, 50.952009601842825)
((8, 12, -31, 5, 1, 2, 0, 8), 1, 50.971523465786305)
((22, -4, 19, -1, 1, 3, 1, 6), 1, 50.99025162073861)
((31, 16, 18, 13, 3, -6, 2, 9), 1, 51.00978544100626)
((127, -21, 14, -5, -5, -8, -16, -28), 1, 51.029572991681064)
((-50, -69, -29, -11, -6, -3, -3, -2), 1, 51.04940330590764)
((22, 19, 3, -3, -5, -1, 3, 13), 1, 51.06727162837903)
((34, 30, 10, 3, -4, -3, -3, 0), 1, 51.210219348511544)
((41, 38, 14, -5, 2, 1, -4, -4), 1, 51.233341315862994)
((-60, -14, 22, -6, -4, -1, -4, -5), 1, 51.25199990877109)
((3, 45, 2, 3, 6, 9, 23, 15), 1, 51.269974855031556)
((73, 20, 0, 4, -1, -3, -1, -6), 1, 51.291127418278855)
((1, -38, -11, -6, -2, -6, -4, 4), 1, 51.309299647058154)
((41, 30, 10, -1, 1, 3, -2, 0), 1, 51.328761054378134)
((-23, 14, -3, 3, 3, -3, -2, -7), 1, 51.349826950160505)
((-77, -29, 6, -2, 1, 5, -2, -7), 1, 51.36906199574645)
((-34, 27, 12, 3, -2, -2, -9, -1), 1, 51.388268532297886)
((-96, -27, -3, -8, 3, -1, 1, -7), 1, 51.40891705581499)
((31, -15, 2, -5, -1, -3, -16, -5), 1, 51.42709897766602)
((-95, -7, 4, 21, -4, -2, 2, 1), 1, 51.446581481671544)
((-9, -1, 8, 2, 2, 7, 25, 32), 1, 51.4669631606256)
((58, -12, -8, -11, -2, -1, -5, -13), 1, 51.48614574958805)
((95, 11, 9, 15, 3, 2, 11, 1), 1, 51.5061471180217)
((16, 19, 12, 7, 3, 5, 4, 4), 1, 51.53199911051812)
((-11, 4, -9, -1, -1, 1, 2, -6), 1, 51.55198451389245)
((-28, 25, 12, 3, -1, 1, 18, 10), 1, 51.570623150476386)
((4, -8, -1, 1, -3, -3, -16, 0), 1, 51.593293534721155)
((-40, -18, 1, -9, -4, 2, 3, -2), 1, 51.61401390100523)
((10, -27, -11, -2, -4, -4, -1, -13), 1, 51.632227182794225)
((62, -13, -11, -20, -4, -6, -21, -11), 1, 51.65180148589088)
((57, 26, 6, 10, 8, 11, 11, -1), 1, 51.67198360160335)
((-31, 12, 22, 2, 2, 6, -4, -1), 1, 51.69088965293101)
((-10, 4, -1, -5, -2, -3, 27, 5), 1, 51.71142242976799)
((-2, -2, 7, -11, -7, -14, -11, 2), 1, 51.73415610406938)
((-59, -8, -2, -9, 1, 7, -14, -13), 1, 51.75285061836096)
((77, 21, -7, 0, -2, 1, -13, 1), 1, 51.77250246603148)
((18, 7, -4, -2, -6, -1, -8, -14), 1, 51.79251751880171)
((-5, -29, -9, -12, -8, -9, -5, -5), 1, 51.81039382380276)
((-21, -23, -13, -9, -3, -10, -20, -17), 1, 51.83046019283511)
((77, 27, 21, 20, 5, 0, 8, 16), 1, 51.84986800317021)
((52, 2, 3, 5, -2, -3, -14, 10), 1, 51.86893541563322)
((7, 14, -7, -8, -1, 7, 8, 7), 1, 51.890765923721226)
((24, 10, -10, 7, 3, 3, -2, 1), 1, 51.91010303165073)
((24, 0, 8, -4, -1, -6, 0, 7), 1, 51.92892925768176)
((23, -5, -13, -7, 0, 2, -1, -2), 1, 51.95075463414356)
((-1, -25, -6, -17, -5, -5, 11, 0), 1, 51.96993665292531)
((29, 30, 18, 9, 0, 5, 18, 5), 1, 51.994198411476596)
((48, 0, 4, 0, -2, 1, 12, -4), 1, 52.01435087779317)
((0, -2, 6, 11, -3, -2, -1, 12), 1, 52.03286806589008)
((-28, -17, -15, -5, -1, 0, -8, -26), 1, 52.05056305343163)
((15, 6, 4, -2, 1, -2, -1, -8), 1, 52.07047661403899)
((-3, 1, -9, -1, -3, -8, -26, -1), 1, 52.08998477617557)
((11, 4, -4, -1, -4, 3, 12, -2), 1, 52.10981395004077)
((-6, -12, 3, 5, 0, -7, 10, 8), 1, 52.130711072338826)
((-20, 1, 9, -5, -2, -4, -35, -21), 1, 52.14997576732066)
((6, 19, 5, 3, 1, 3, 15, 2), 1, 52.16860699155563)
((-15, -4, -8, -3, -1, 4, 9, -6), 1, 52.187979450687926)
((-11, -5, 18, -1, -3, -2, 9, 0), 1, 52.20801388960162)
((-10, -1, 1, 6, 2, 1, -1, -1), 1, 52.22866298329941)
((10, 9, 5, 12, 1, 3, 7, 13), 1, 52.24897167912511)
((6, -5, -36, -8, -3, 1, 6, 3), 1, 52.26858988613492)
((-16, -9, 0, 2, 0, -3, -4, -18), 1, 52.28769150943934)
((-42, -8, -3, -3, -2, -3, -5, -5), 1, 52.30789358147597)
((-16, 0, 10, 0, -5, -6, -15, 3), 1, 52.32709156531705)
((4, 0, 0, -4, 3, 4, 9, 8), 1, 52.346954950023665)
((12, 5, 0, -7, -3, 2, 0, 1), 1, 52.3668228961758)
((-10, 14, 3, -3, 1, 4, 9, 9), 1, 52.38736137481968)
((33, -7, 4, -1, -1, -3, -10, -4), 1, 52.40970960697445)
((4, 0, -1, 5, 1, -3, -16, -17), 1, 52.42905355707224)
((9, 21, 32, 5, 1, 7, 10, 0), 1, 52.44812268007732)
((4, -13, -12, -1, -1, -2, 9, 3), 1, 52.46774430817126)
((5, 7, 4, -3, 2, 5, 9, -3), 1, 52.48794352930444)
((-19, 5, 5, 1, -1, -3, 2, 6), 1, 52.50909894345518)
((7, 12, -50, 3, 0, 0, 6, 2), 1, 52.53593278710023)
((11, 8, -7, 2, -1, -8, -29, -67), 1, 52.55423843816105)
((7, 28, 60, 11, 5, -2, 2, 7), 1, 52.57509336708803)
((-18, -60, 10, -36, -16, -1, 7, 27), 1, 52.59536043972335)
((19, 38, 71, 32, 11, 7, 3, 14), 1, 52.614106840457744)
((-11, -10, -20, -13, -10, -15, -48, -41), 1, 52.635066682631724)
((-2, 10, 43, 4, 2, 6, 13, -13), 1, 52.65576538204957)
((0, 1, 48, 6, 0, -3, -3, 4), 1, 52.67344212380903)
((-2, -2, 47, -2, -4, -12, -13, 7), 1, 52.69318120912517)
((3, -9, 24, 0, -2, 0, 5, 16), 1, 52.71371854740767)
((-1, -25, -26, -13, -5, -4, -6, -29), 1, 52.73322727972494)
((5, 9, -2, -3, -6, -34, -38, -3), 1, 52.75841444153652)
((2, 10, 75, 6, -3, -4, 2, 1), 3, 52.79804941185862)
((2, 3, -4, 5, 3, 5, 11, 7), 3, 52.818834208560695)
((4, 17, 1, -3, -5, -5, -3, -1), 3, 52.841432750038486)
((-6, 2, 71, -7, -4, 9, 16, -15), 3, 52.86130411727476)
((-20, 3, 57, -13, -7, -10, -11, -3), 3, 52.88153982997212)
((1, -6, -78, 4, 6, 3, -3, 0), 3, 52.90041509154251)
((12, 11, -45, 15, 6, 5, 0, 13), 3, 52.91876863778131)
((-6, -8, 59, -9, -8, -7, -8, -2), 3, 52.93837202009317)
((-3, -1, -25, -2, -1, 1, 3, 9), 3, 52.95846062617243)
((-13, -14, 30, -8, -8, -7, -6, -18), 3, 52.97717851787231)
((-15, -21, -60, -14, -2, 10, 19, 1), 3, 52.99749291550492)
((3, 7, 6, 4, -2, -4, -2, 4), 3, 53.01734318605566)
((0, -6, -48, 3, 4, 5, 4, 2), 3, 53.03599721751823)
((1, 2, -1, 3, 1, 6, 8, -4), 3, 53.05482857517547)
((-10, -16, 46, 8, -8, -8, -3, -6), 3, 53.07588192698266)
((-5, -15, -28, -7, -2, -5, -6, 7), 3, 53.09304151485606)
((-9, -29, -18, -15, -10, 2, 13, 6), 3, 53.11384740824367)
((-4, 13, 85, -1, -2, -1, 2, -24), 3, 53.13528335129403)
((-8, -19, 98, -1, -1, 6, 12, 2), 3, 53.15733565967055)
((-9, -5, -40, -5, -7, -4, 2, -9), 3, 53.17539898393801)
((-10, 8, 81, -14, -14, -15, -16, -18), 3, 53.197212956786004)
((2, -5, -42, 0, 2, 2, 6, 15), 3, 53.2157951454816)
((0, 7, 1, 1, 1, 4, 4, -6), 3, 53.23196147859257)
((9, 12, 21, 3, 1, 2, 8, 9), 3, 53.25643933562546)
((-6, -5, 21, -2, -7, -6, -9, -8), 3, 53.27618811401333)
((-12, 0, -46, -19, -7, -1, 0, 5), 3, 53.296273299008455)
((-15, -29, -5, -11, -5, -6, -6, -7), 3, 53.31674221560812)
((5, 5, -9, 12, 9, 6, 4, 1), 3, 53.335305018160255)
((11, 25, 52, 13, 2, 3, -1, 1), 3, 53.3546632227753)
((-6, -1, -61, 0, 3, -8, -19, -17), 3, 53.376200087807824)
((-3, -21, -23, -12, -5, -1, -5, -11), 3, 53.396357685750615)
((-9, -31, -107, -20, -7, -7, -3, -3), 3, 53.41359139711375)
((-6, -24, -103, -18, -4, -2, -3, 3), 3, 53.43403408540166)
((-23, -49, -19, -25, -18, -17, -12, 4), 3, 53.452148725931245)
((7, 12, -47, 2, 9, 4, -2, -2), 3, 53.47161925614227)
((-1, 13, 71, 6, -4, -12, -19, -3), 3, 53.49117702399891)
((10, 9, -39, 8, 5, 6, 3, 6), 3, 53.510624746982316)
((8, 21, 31, 8, 3, -2, 5, 4), 3, 53.53877570802187)
((-5, -18, -64, -11, -5, -6, 0, 15), 3, 53.55917506257733)
((3, 5, -11, 0, 2, 2, 7, -2), 3, 53.57903844728394)
((4, 2, -40, 7, 4, 3, -5, 4), 3, 53.59778427783765)
((4, 5, 15, 1, 0, 0, -7, 1), 3, 53.61837008147882)
((-1, 4, 8, -1, -3, -6, -7, -5), 3, 53.63839026587526)
((-1, 4, 37, -1, -2, -5, -8, 3), 3, 53.65947953906593)
((5, 10, 41, 2, -2, -2, -3, -3), 3, 53.67902761385083)
((9, 10, -37, 5, 4, 0, -6, -6), 3, 53.698040288967576)
((9, 10, -37, 5, 4, 0, -6, -6), 3, 53.71618857015788)
((2, 2, 0, 2, 3, 8, 15, 3), 3, 53.73763135537652)
((15, 37, 50, 10, 7, 10, 8, 12), 3, 53.75861400477812)
((2, 0, -11, 3, 3, 7, -1, -14), 3, 53.778540109360655)
((5, 8, -21, -1, -1, 0, -13, -3), 3, 53.797711294709295)
((-5, -2, 54, -2, -1, -1, -3, -1), 3, 53.817257088771434)
((0, -3, -25, -2, -2, 4, 10, 2), 3, 53.83470632843548)
((-1, -1, -30, 2, 4, 0, -8, 12), 3, 53.85571520614883)
((1, 9, -3, 6, 3, -10, -14, 17), 3, 53.8745271776626)
((-8, -11, -40, -12, -5, 5, 8, -8), 3, 53.89343379917096)
((1, -19, -104, -8, 3, 3, 3, 3), 3, 53.91445921212432)
((-2, -1, 7, -1, -5, -7, -6, -3), 3, 53.93432259683094)
((-3, -6, -60, -1, 3, 0, -8, -4), 3, 53.95554529230313)
((6, 11, 38, 6, -1, -4, 10, 7), 3, 53.975741092352166)
((6, 14, -7, 2, 3, 4, 5, 1), 3, 53.99745870466351)
((-8, -20, -31, -2, -3, 0, 5, 0), 3, 54.01674449633089)
((9, 25, 10, 6, 3, -1, -5, 4), 3, 54.03822206257163)
((8, 26, 102, 13, 5, 3, 1, 3), 3, 54.06060621610988)
((9, 15, 1, 6, 1, -2, -2, -9), 3, 54.07850133707372)
((1, 1, 36, 0, 1, 2, 6, -3), 3, 54.09722264985774)
((-9, -6, 27, 0, -5, -3, -11, -16), 3, 54.11774915470713)
((-9, -6, 27, 0, -5, -3, -11, -16), 3, 54.136990472280665)
((7, 14, -16, 0, 2, -7, -11, 8), 3, 54.156468985021355)
((-2, -4, -8, -3, -4, -2, -4, 3), 3, 54.17732733503247)
((4, 17, 52, 7, -2, 0, -2, 8), 3, 54.19433753556502)
((-9, -33, -82, -23, -10, -7, -1, -7), 3, 54.214199209729564)
((-7, -22, -42, -8, -3, -4, -2, -1), 3, 54.23290911889978)
((5, 6, 40, 14, 9, 6, 3, 5), 3, 54.25228785001967)
((-1, 7, 13, 2, 1, -2, 1, -2), 3, 54.271883819982556)
((-3, -8, 22, -5, -6, -11, -19, -4), 3, 54.29170957276361)
((2, 6, 5, 1, 0, 3, 2, 12), 3, 54.31143269302042)
((3, 11, -10, -2, 0, 3, 8, -1), 3, 54.331880512934546)
((3, 8, 7, 11, 6, 6, -1, 3), 3, 54.35135560459109)
((1, 14, 17, 6, 2, 0, -8, -10), 3, 54.372395842242405)
((-9, -21, -15, -13, -7, -5, 2, 6), 3, 54.39218795436274)
((7, 16, 14, 7, 6, 5, 3, -3), 3, 54.412848451674336)
((-4, -14, -30, -6, -5, 2, 7, 7), 3, 54.43289144329838)
((-4, -10, -27, -12, -7, -6, 1, -8), 3, 54.4547863818044)
((2, 6, -46, 0, 2, 9, 6, 5), 3, 54.475412098093884)
((4, 1, 14, 7, 4, -1, -10, 0), 3, 54.4945673183832)
((6, 9, 23, 1, -2, -3, 0, 6), 3, 54.51568167952424)
((-2, -5, -61, -8, -2, -3, 2, -2), 3, 54.539752427544286)
((-8, -11, -14, -8, -4, -7, -9, -10), 3, 54.56092323657367)
((5, 12, 3, 2, 2, 0, -5, 4), 3, 54.57965139152598)
((1, -3, -33, -2, 1, 3, 6, 4), 3, 54.59956723285609)
((-1, -5, -30, -9, -1, 2, 2, -3), 3, 54.61907824589613)
((2, 5, -11, 8, 4, 10, 23, 3), 3, 54.637431792134926)
((-5, -8, -30, -6, -3, -4, 5, -1), 3, 54.65771083856474)
((-7, 0, 58, -10, -6, -6, 3, -1), 3, 54.67775668109224)
((7, 20, 44, 11, 4, -1, -10, 1), 3, 54.69680983903799)
((-1, 2, 8, -8, -3, -2, 1, -4), 3, 54.717194368895505)
((5, -3, 19, -2, -2, 0, -1, 7), 3, 54.73771175085385)
((-8, -4, 24, -2, -4, 3, 13, -20), 3, 54.756382887737125)
((5, 19, 34, 8, 1, -3, 0, 0), 3, 54.77694189288586)
((-4, -13, -46, -10, -2, -1, 0, 1), 3, 54.79552066049731)
((-5, -16, -53, -11, -2, -4, -9, 0), 3, 54.81605742859912)
((3, -5, 10, -3, -4, -1, 5, 3), 3, 54.839039131500776)
((5, -1, -12, 3, 4, 15, 19, 15), 3, 54.858675014111974)
((4, 3, 6, 7, 2, 8, 7, 0), 3, 54.876415616108744)
((2, -2, -4, -4, -3, -1, -4, -3), 3, 54.89628014117674)
((2, 10, -23, 2, 5, -1, -3, 17), 3, 54.91484294372887)
((-1, -3, -2, 2, -5, 1, -3, 0), 3, 54.93606050757485)
((-2, 1, 31, 6, 1, 3, 10, 0), 3, 54.95679968982171)
((-11, -18, -19, -9, -6, -15, -12, -11), 3, 54.977863875062006)
((-4, -3, -6, -13, -5, -7, -4, -4), 3, 54.99578180325345)
((1, 2, -7, -3, -6, -2, 0, -3), 3, 55.01480189071917)
((-5, -4, -8, -5, -2, -2, -2, 6), 3, 55.03522576304431)
((5, -1, -12, 3, 4, 14, 7, 2), 3, 55.0543644480936)
((5, -10, -30, 27, 19, -3, -6, 8), 3, 55.07412405991459)
((3, 8, 16, -12, -16, -15, -23, -11), 3, 55.09506736684855)
((-2, -19, -11, -6, -2, 8, 49, 7), 3, 55.114724346145294)
((-3, 28, 77, -7, -5, 3, -14, -4), 3, 55.13459628356226)
((-3, -13, -39, -14, 0, 14, 25, -1), 3, 55.154421466162624)
((-3, -20, -64, 0, 2, 4, -24, -1), 3, 55.173130805152155)
((-6, 2, -28, -1, 0, -2, -1, -1), 3, 55.19405016449713)
((2, 38, 46, 5, 0, -12, 10, -4), 3, 55.21399850612659)
((-2, 11, -7, 4, -2, -20, -1, -11), 2, 55.27822422925825)
((-1, -24, -42, -1, -2, -13, -39, 0), 2, 55.29335340369363)
((14, 16, 42, -1, -2, -17, 4, 5), 2, 55.31396828655001)
((28, -30, 28, 3, -1, 13, 21, 11), 2, 55.33537629074654)
((4, 32, -1, 16, 5, -13, -47, -20), 2, 55.355547573025895)
((-11, -13, 5, -11, -6, 8, 17, -3), 2, 55.374486124652904)
((-10, -8, 36, 7, 0, 0, 19, 0), 2, 55.39466481928123)
((-2, -2, 3, 1, 2, 4, 12, 3), 2, 55.413736223009074)
((-10, 14, -41, -3, -2, -9, -6, -3), 2, 55.43411847214382)
((0, 41, -17, 5, 5, 5, -7, 3), 2, 55.45413295473335)
((-9, -10, 71, -4, -8, -17, -3, -3), 2, 55.47387261023018)
((-2, -5, -21, -3, 1, 10, 15, 4), 2, 55.49384318890657)
((-32, 2, -3, -2, 0, -12, -9, -6), 2, 55.513262973036156)
((-1, -13, -2, -2, 2, -6, -6, -1), 2, 55.53913321131466)
((8, 13, 30, 10, 4, 10, 28, 3), 2, 55.55971331314894)
((-4, -4, -8, 6, 4, 4, 9, 2), 2, 55.58130605588911)
((17, -8, 28, 7, 0, -7, -16, -2), 2, 55.60360183142038)
((-13, 12, 9, -4, -3, -4, -25, -4), 2, 55.62325595981366)
((-14, 19, 1, 0, -4, -10, -25, -2), 2, 55.64301956289948)
((6, 9, -20, 0, -4, -9, -19, -11), 2, 55.66321878403266)
((2, 4, 28, 6, 5, 3, 4, -1), 2, 55.68425503041914)
((11, -5, 40, -3, 0, 8, 36, 7), 2, 55.705705798167436)
((14, 1, 9, -3, -2, -5, -2, 2), 2, 55.725008695255525)
((28, 13, 33, 6, 2, 9, 23, 8), 2, 55.7453658564399)
((4, -2, 15, 9, 1, -16, -11, -2), 2, 55.765483541734376)
((7, 9, 26, -2, -1, -9, -39, -3), 2, 55.7861890833205)
((-10, -66, -68, -24, -14, -20, -32, -7), 2, 55.80648409480965)
((-6, 53, 26, 9, 4, 5, 6, 4), 2, 55.82710867073776)
((10, 7, -26, 2, 2, 7, 16, 1), 2, 55.84633972505887)
((-18, 10, -66, -4, 0, 0, -5, 4), 2, 55.86533187367077)
((7, -27, -54, -6, -1, 3, 19, 5), 2, 55.88493183489848)
((-5, -5, -32, -3, 2, -4, -13, -3), 2, 55.90417315247202)
((3, 1, 9, 3, -2, -3, -1, 1), 2, 56.79972346236522)
((-8, -17, -60, -6, 0, -2, 3, -3), 2, 56.81882850675379)
((7, 23, 17, 14, 3, 0, -6, 3), 2, 56.838367458647646)
((5, -9, 34, 0, -7, -27, -38, -7), 2, 56.853647730965946)
((-12, -34, -33, -11, -4, -1, -6, -4), 2, 56.87457165175644)
((-7, -10, -22, -13, -9, -15, -7, -6), 2, 56.89455078314318)
((5, 16, 62, 7, 4, 14, 16, 5), 2, 56.91558531898759)
((-13, -2, 29, 4, 2, 5, 12, 1), 2, 56.93724306232645)
((16, -51, -21, -8, 0, 3, 2, 0), 2, 56.95768518043368)
((-7, 18, -7, 3, -2, -7, -14, 0), 2, 56.977841638015086)
((-2, 12, 21, -1, -1, -5, -5, -2), 2, 56.998702268748964)
((14, 15, 24, 3, 0, 0, 2, 4), 2, 57.01858675014112)
((-10, -12, -68, -9, -2, 4, 17, -2), 2, 57.038559039359576)
((-3, 12, 41, 6, 0, -2, -9, 4), 2, 57.05811965811966)
((3, -6, -16, -4, 0, 4, 5, -2), 2, 57.07889989337621)
((-9, -26, -31, -10, -10, -14, -14, -12), 2, 57.098920647953335)
((-17, 16, 73, 10, 0, -2, 6, -6), 2, 57.11965983020019)
((12, 20, 12, 4, 4, 6, -8, 4), 2, 57.13988870072926)
((3, 10, 1, 4, 2, -4, 0, 0), 2, 57.15984787579184)
((6, 4, -73, 5, 7, 6, 12, 11), 2, 57.181341977272595)
((-2, -2, 4, -2, -1, -1, -12, -1), 2, 57.201237292097865)
((11, 3, -5, 5, 7, 7, 3, 3), 2, 57.221246643061185)
((-3, -7, -32, -7, -8, -17, -51, -8), 2, 57.24111858047815)
((-10, -1, -6, -5, -1, 3, 29, 0), 2, 57.2618520609181)
((1, -3, 18, -1, 0, 7, 15, 0), 2, 57.284607972266414)
((0, -1, 8, -4, 0, -2, -6, -1), 2, 57.30553417377967)
((-8, 2, -26, -3, -1, 2, 5, -3), 2, 57.32449211155015)
((2, -8, 14, -6, -1, -1, 6, 3), 2, 57.34348939178826)
((-2, -1, 10, -3, -1, -1, 11, 0), 2, 57.36540542697981)
((10, -13, 8, 5, 1, -2, -6, 2), 2, 57.38633048813169)
((0, 8, 21, 4, 3, 6, 11, 2), 2, 57.40581185177583)
((0, -7, 6, 0, 0, 3, 15, 0), 2, 57.425988835862086)
((8, 8, 18, -5, -2, 1, 16, 1), 2, 57.445133222718276)
((4, 17, 16, 6, 5, 4, 6, -1), 2, 57.46472919268116)
((10, 13, -1, 7, 3, -5, -7, 0), 2, 57.48569644720412)
((-14, -1, 0, 1, 1, 0, 5, -2), 2, 57.5065337005297)
((10, 2, -15, -6, -3, -6, -9, 0), 2, 57.53147568464446)
((-5, -5, -1, 0, -1, -2, -6, -3), 2, 57.55377146017573)
((-8, -8, -8, 0, -5, -12, -25, -5), 2, 57.57363199397889)
((-14, 2, -8, 2, 0, 3, 6, -2), 2, 57.59319603382312)
((7, -4, -9, 4, 2, 11, 13, 4), 2, 57.61490395306272)
((-1, -3, 4, -3, -1, 4, -3, 2), 2, 57.6350273401641)
((8, -10, 23, -1, 3, 4, 8, 5), 2, 57.65525963177731)
((7, 8, 22, 2, 0, 5, 34, 2), 2, 57.67441884333145)
((-4, 0, 14, -1, -3, -5, -42, -7), 2, 57.69451315121762)
((1, -10, -65, -8, -1, -1, 1, 1), 2, 57.718327888107744)
((-3, 14, -29, -3, 0, -6, 6, -4), 2, 57.740397872085666)
((-3, 2, -18, 0, 0, -4, -5, -4), 2, 57.760266388418486)
((-5, 8, 22, 7, -2, 0, -8, -2), 2, 57.78189676308422)
((-5, -7, -27, -7, -2, -10, -26, -3), 2, 57.8022362486672)
((-5, -13, -43, -5, 2, 1, 1, -5), 2, 57.82397837874822)
((3, 2, -17, -5, -2, -2, -2, 3), 2, 57.84319916981691)
((0, 1, 16, -4, -1, 2, -1, 1), 2, 57.862248336497835)
((1, -2, 21, 0, 1, 0, 7, 2), 2, 57.88248518955657)
((4, -24, -9, -6, -3, -6, -3, 0), 2, 57.90291248296585)
((-2, 10, -19, 2, 0, 2, 1, -2), 2, 57.922492487869405)
((-13, -5, -1, -7, -5, -5, -13, -8), 2, 57.94078502477435)
((6, 7, 0, 0, 1, 8, 25, 6), 2, 57.96061476882024)
((-11, -4, -35, 3, 4, 6, 11, 1), 2, 57.97747672237332)
((7, 1, -36, 0, -6, -9, -11, 2), 2, 58.037344554489316)
((-7, -11, -3, 1, -2, -5, -8, -6), 2, 58.05604762149125)
((-4, 2, 8, -2, 0, -1, -1, 2), 2, 58.0763477646066)
((3, 6, 24, -4, -4, -1, 2, 2), 2, 58.09704019203686)
((14, 0, -8, -1, 1, 3, 3, 3), 2, 58.11903491216366)
((-3, 1, 14, 0, -1, -1, 10, 1), 2, 58.139306546244505)
((1, 6, 8, -1, -4, 0, -6, -2), 2, 58.158555276167014)
((7, 6, 50, 14, 5, 4, 10, 0), 2, 58.17956244333829)
((2, 10, -3, 3, 0, -3, -5, -2), 2, 58.20011289577667)
((-15, -10, -42, -5, -1, 9, 7, 0), 2, 58.22115940541558)
((-7, 18, 38, 1, 2, -3, -6, 0), 2, 58.240998272352506)
((5, -2, -42, -6, -4, -4, -1, -1), 2, 58.260544636595334)
((-7, -14, 23, -8, -6, -2, -2, -4), 2, 58.28058249659317)
((4, 3, 19, 4, 1, -4, -11, -2), 2, 58.300704173152475)
((-2, 7, -13, 1, 2, -1, -7, -3), 2, 58.32124037107359)
((13, 3, 16, -3, 0, 7, 26, 6), 2, 58.340644760324544)
((-13, -4, -9, 0, 0, 4, 9, 2), 2, 58.360995649521335)
((-1, -1, -1, -7, -1, 1, 3, 2), 2, 58.38159114623424)
((8, -16, -46, -4, -2, -1, -11, -3), 2, 58.40223168722168)
((4, 5, 0, 5, 4, -2, -2, 0), 2, 58.42267494569029)
((0, -7, -14, -3, -1, -1, -1, -1), 2, 58.442549163830016)
((1, -1, -11, 3, -1, -7, -14, -3), 2, 58.46461971798863)
((2, 12, 27, 6, 0, -11, -12, -1), 2, 58.48439130360411)
((-5, 0, 2, -3, -1, 2, 1, -1), 2, 58.50426381120177)
((-3, 3, -12, 0, 0, -4, -5, -3), 2, 58.53361842367846)
((-1, -9, -24, -4, -2, -3, -10, -2), 2, 58.55411470895127)
((6, 8, 71, 8, 0, 3, -2, 0), 2, 58.57212329587246)
((-9, -6, -9, -1, 0, 3, 4, -2), 2, 58.59088110022066)
((2, -1, 2, -4, -3, -7, -6, -3), 2, 58.612557089341614)
((-8, -9, 39, -5, -3, 1, 3, -4), 2, 58.633575660126695)
((11, 3, -17, 2, 0, -3, -1, -2), 2, 58.654388395682595)
((-1, 8, -3, 2, -1, -3, -7, 1), 2, 58.674202174669155)
((-8, -13, -14, -7, 0, 4, 16, -3), 2, 58.692463351636135)
((12, 9, 58, 8, -1, -8, -12, 0), 2, 58.71001294310167)
((6, 0, -8, 1, 1, 6, 13, 1), 2, 58.729288471516625)
((-2, 7, 21, 2, 1, 2, 2, -1), 2, 58.74956181613953)
((-5, -14, -16, -6, -1, 4, 9, -2), 2, 58.76911844363479)
((0, 1, 11, -1, -3, 2, 0, -3), 2, 58.78930740151554)
((-10, -7, -45, -4, 3, 3, 8, 0), 2, 58.80747107758449)
((5, -2, -10, 3, 0, -4, -5, -4), 2, 58.82690226532788)
((-13, 8, 17, 1, 0, 3, 9, -1), 2, 58.84737118192755)
((1, -1, 21, 4, 1, -1, -13, -1), 2, 58.86649219137545)
((2, 0, -12, -3, -1, -3, 6, 1), 2, 58.88637268150277)
((-4, 4, 25, 2, 1, 2, 2, -2), 2, 58.90689006346111)
((4, 0, -13, -5, -2, -3, 2, -1), 2, 58.93022869947487)
((5, 1, 3, -4, -5, -6, 0, -3), 2, 58.95040226247698)
((-3, -9, -55, -6, -1, 1, 2, -2), 2, 58.97130565676263)
((5, -4, -13, 0, 3, 7, 6, 3), 2, 58.98919735664232)
((-1, 5, 11, -3, -2, -1, 0, 2), 2, 59.00954425457427)
((-7, 5, 25, 3, -3, -2, -4, -2), 2, 59.031365639771245)
((12, 6, 21, 2, 5, 10, 25, 7), 2, 59.05140977175667)
((-1, -3, -14, 2, 0, -3, -8, -1), 2, 59.071764082037596)
((-12, -14, -16, -5, 1, 5, 3, 0), 2, 59.09133952549563)
((1, 1, 5, -1, -1, 4, 3, -3), 2, 59.1094900874087)
((-2, 0, -20, -3, -3, 0, 2, 3), 2, 59.12891044171898)
((-1, 2, 21, 8, -3, -5, -1, 0), 2, 59.14926133091577)
((-5, 4, 49, -2, -1, 1, 15, -2), 2, 59.168603000290794)
((-3, 33, -7, -1, 2, -8, -21, -2), 2, 59.18758887691509)
((8, -16, 10, -10, -5, 3, -1, 1), 2, 59.20883951124111)
((-22, 9, -15, 6, 2, 2, 0, 0), 2, 59.2279434152683)
((10, -18, 6, -3, -3, 0, 5, 1), 2, 59.24723319820051)
((-4, 0, 19, 0, -1, -1, 1, -3), 2, 59.26810694309027)
((6, -9, -21, -5, -6, -18, -33, -5), 2, 59.286673736907225)
((-6, -25, -26, -3, -1, 2, 5, -1), 2, 59.30691800231494)
((5, -9, -22, -3, -2, 0, 3, 0), 2, 59.33042085036748)
((-1, -2, 15, 1, 1, 1, -9, -2), 2, 59.349710063119005)
((0, -18, -88, -20, -6, 3, 22, 3), 2, 59.369221076159036)
((-4, 7, -4, 4, 2, -4, -10, -6), 2, 59.388905994309596)
((-7, -8, -17, -5, -5, -5, -2, -4), 2, 59.40731256735259)
((4, -1, 13, -6, -5, -1, 5, -4), 2, 59.42753288517131)
((3, -10, -19, -5, -3, -4, 9, -2), 2, 59.449886819132985)
((-2, 5, 30, 2, 2, 3, -1, -1), 2, 59.469698317396784)
((2, -23, 24, 1, -2, -7, -28, -6), 2, 59.4880569952618)
((0, 3, 23, 0, 0, -1, -5, 1), 2, 59.5081376188114)
((-5, 5, -12, 8, 3, 5, -1, -2), 2, 59.540253616371025)
((-5, 22, 0, 3, 1, -9, -7, -3), 2, 59.55937633636099)
((-9, 13, 15, 8, 5, 4, -10, 0), 2, 59.57970612887224)
((9, -9, 14, 3, 1, 2, 3, 3), 2, 59.59942696840629)
((4, 7, 9, 7, 5, 3, 8, 4), 2, 59.618724163687475)
((-2, 3, 19, 3, 2, 1, -2, 3), 2, 59.63640204580832)
((2, 1, 1, -9, -1, 5, 5, -1), 2, 59.65611661335477)
((5, 2, -36, -7, 0, 5, 13, 2), 2, 59.68084934115621)
((-1, 1, -3, 4, 1, 1, -3, -3), 2, 59.70042250389148)
((9, -1, -7, 0, -2, 3, -1, 2), 2, 59.719282940763925)
((-15, 3, 20, 2, -1, 2, 17, 3), 2, 59.741509154250984)
((3, -5, -6, -2, -4, -20, -20, -2), 2, 59.765199021569934)
((-3, -4, -6, 1, -3, -3, 1, -4), 2, 59.78478472828039)
((8, -5, 12, -2, 1, 10, 2, 4), 2, 59.80529868915459)
((-3, -14, 3, -3, -2, 0, 15, -2), 2, 59.82352223419602)
((10, 10, 20, 3, -3, -7, -28, -6), 2, 59.84664648227023)
((4, 2, 3, 2, 1, 3, 10, -2), 2, 59.86673565853019)
((7, 9, 3, 6, 5, 18, 25, 8), 2, 59.886721632085205)
((11, -1, 1, 4, 4, -3, -13, 0), 2, 59.90660725383874)
((-6, 1, -25, 0, -1, -9, -13, -6), 2, 59.92677910629879)
((-23, -7, 0, -3, -1, -5, -24, -4), 2, 59.94558993745118)
((-8, -1, -1, 0, -2, -4, -4, -4), 2, 61.655385641709856)
((15, 26, 40, 14, 3, -1, -3, 3), 2, 61.68177132333236)
((1, -10, -38, -4, -2, 3, 1, 3), 2, 61.70554842829693)
((13, -11, 16, 2, -1, -7, -17, -2), 2, 61.72861280739866)
((3, -4, 25, -1, -4, -3, 0, -3), 2, 61.75175986270049)
((-10, -1, -20, 0, -2, 0, -2, -2), 2, 61.774644064704106)
((-5, -12, -14, -8, -2, -5, -1, -2), 2, 61.79497385721535)
((-12, -15, -4, -9, -5, 0, 6, -4), 2, 61.81718752672722)
((8, 3, -19, 6, 5, 9, 3, 3), 2, 61.83834750232349)
((-2, -9, -10, 0, -1, 5, 7, 0), 2, 61.8653883215591)
((-6, -3, 20, 1, -2, -2, -1, -1), 2, 61.88729694440168)
((-11, -6, -13, -4, 1, 1, 2, -3), 2, 61.90950434192596)
((1, -4, -13, -1, 1, 9, 22, 1), 2, 61.93247293067173)
((5, 14, -5, -8, -7, -11, -14, -1), 2, 61.95478809234646)
((3, 10, 13, 7, -2, -1, 0, 0), 2, 61.97876247982986)
((-6, -9, 52, 8, -1, -5, -8, -3), 2, 61.99578237343414)
((0, -9, 7, 3, 0, -8, -23, -3), 2, 62.01909421095545)
((-13, -4, -19, 0, -3, 0, -2, -4), 2, 62.04473295587372)
((0, 9, 2, 5, 2, -2, 2, 4), 2, 62.067952994303894)
((10, 13, -14, 5, 6, 7, 6, 4), 2, 62.09090504780965)
((0, 13, 9, 1, 0, 2, 5, 2), 2, 62.11519930666028)
((-6, 0, 14, -3, -2, 0, -1, -2), 2, 62.13740556382317)
((-1, -10, 38, -1, -3, -6, -10, -2), 2, 62.16272785845835)
((-1, 3, 26, 0, -2, -2, -9, -2), 2, 62.18624724175091)
((4, 9, 26, 5, 2, 6, 15, 1), 2, 62.207136951699994)
((4, -12, -62, -5, -3, 3, 4, -1), 2, 62.23178016113307)
((4, 7, 16, 1, -1, -3, -3, 0), 2, 62.25394650564764)
((4, -7, -12, -5, -1, -1, -4, -1), 2, 62.2783736165991)
((0, 5, 39, 3, -1, 1, 4, 1), 2, 62.299690391885186)
((-6, -8, -1, 1, 0, 0, -7, -2), 2, 62.32111778222519)
((1, -15, -26, 0, -6, -16, -10, -6), 2, 62.34260219063421)
((-10, -4, -17, -6, -4, -2, 1, 0), 2, 62.36621679410205)
((-3, 12, 58, -1, -4, -1, 1, -1), 2, 62.38766699166966)
((-4, -3, 6, 3, 0, 3, 4, -2), 2, 62.4117793628801)
((-16, -19, -2, -8, -4, -2, 0, -5), 2, 62.43564940729717)
((-2, 1, -28, -6, -2, -5, -4, -1), 2, 62.460565163100185)
((1, -7, 5, -5, -2, -1, 3, -2), 2, 62.48371792020892)
((-5, -10, 23, 1, -1, 1, 3, -1), 2, 62.5050113180867)
((-1, 0, -10, -3, -2, -2, -6, -3), 2, 62.54014642240126)
((-2, -23, -37, -6, -1, -2, -1, -2), 2, 62.56287211417298)
((8, 6, 10, 1, -1, 3, 1, 2), 2, 62.58316199403591)
((-42, -8, 14, -1, -4, -4, -8, -3), 2, 62.607594806794275)
((11, 10, 20, 2, 0, 3, 2, 0), 2, 62.6299396178649)
((14, 5, -8, 1, 1, 3, 4, 3), 2, 62.652390482543915)
((3, 6, 33, 10, 6, 5, -6, -1), 2, 62.676682460671785)
((2, -6, -15, -8, -7, -12, -13, -6), 2, 62.69839893262175)
((-4, -6, -9, -4, -1, 4, 7, 0), 2, 62.71857534652732)
((6, 2, -15, 4, 3, -2, 2, 3), 2, 62.735614626275066)
((2, -7, -17, -6, -4, -4, -5, -4), 2, 62.779058403608104)
((-5, -11, -21, -1, 1, 3, -1, 1), 2, 62.80018245782088)
((12, 2, -12, 0, 1, -1, 1, 4), 2, 62.81773147910573)
((9, -1, -9, -1, 1, 8, 14, 3), 2, 62.838539083035414)
((-6, 2, 17, -5, -3, 0, 0, -2), 2, 62.8570750870951)
((-10, 6, -23, -5, -3, -4, -14, -3), 2, 62.87721729015925)
((-12, -9, -25, -5, -1, -2, -3, -5), 2, 62.89851410912118)
((-1, -2, -4, 6, 3, 2, 1, -4), 2, 62.9177098122395)
((4, -4, -51, 3, 4, 1, 1, 1), 2, 62.93855846917888)
((6, 3, -2, -2, 0, 1, 5, -2), 2, 62.958506810808345)
((3, 19, 11, 6, 3, 3, 3, 4), 2, 62.97806172776153)
((-7, 1, -11, -8, -2, 0, 3, -1), 2, 62.99855744285364)
((0, 1, 7, 3, 0, 2, 0, 0), 2, 63.01965070730915)
((4, 11, 1, 1, -1, -3, -6, 1), 2, 63.040922438320706)
((2, -3, 12, -2, -2, 3, 8, 2), 2, 63.060716831163795)
((4, -1, 1, -2, -2, -7, -3, 0), 2, 63.08097364054669)
((-6, -54, -40, -12, -6, -5, -4, -3), 2, 63.099925306329574)
((-4, 1, 22, 2, 3, 4, 5, 5), 2, 63.11934794136262)
((-4, -4, -20, -2, 1, 5, 7, 1), 2, 63.14176630574229)
((-16, 35, 34, 2, -3, -4, -2, -5), 2, 63.163266109029955)
((10, -10, -7, 11, 5, 3, 5, 0), 2, 63.18146000467548)
((1, 4, -31, -3, 1, 4, 6, -1), 2, 63.20080680567672)
((2, 1, -8, 4, -1, -3, -1, 0), 2, 63.21998369283226)
((-10, 5, 23, -1, 0, -3, -3, -7), 2, 63.239329353472115)
((3, -5, 8, 0, 0, -6, -2, -3), 2, 63.25898006078126)
((-1, -7, 11, -1, 0, 2, 4, 3), 2, 63.27868322471391)
((-6, -1, -33, 1, 1, 3, 5, -2), 2, 63.29871424254346)
((-2, 25, -36, -4, -1, -4, -12, -2), 2, 63.319975140121905)
((-5, -14, -14, -6, -1, 5, 17, 2), 2, 63.33934360798937)
((4, 4, 20, 2, -1, 4, 9, 1), 2, 63.3578129009083)
((-3, -19, 3, 3, 0, -2, 0, 0), 2, 63.37795111270762)
((-8, 13, -5, 2, -2, -2, 3, 1), 2, 63.398190246489115)
((-2, 1, -4, -1, -3, 4, 3, 3), 2, 63.41878403265995)
((4, 0, -7, 0, 1, -3, -4, -1), 2, 63.44143902202608)
((6, 8, -20, 2, 3, 2, 5, 1), 2, 63.461670743458605)
((-5, 2, -7, -5, -3, -10, -18, -4), 2, 63.48009556228369)
((1, -3, -4, -1, 1, -2, -2, -2), 2, 63.50038487196593)
((-7, 10, 7, 9, 0, 4, -3, -1), 2, 63.53250714151314)
((0, -15, -36, -3, -1, 7, 16, 0), 2, 63.552076883164276)
((2, 12, 14, -1, -2, 1, 18, 4), 2, 63.572634747951625)
((25, -12, 10, 1, -2, -12, -16, -2), 2, 63.59421779762007)
((-9, 7, -5, 1, 0, 7, 16, -1), 2, 63.61472776722943)
((3, 2, 26, 9, 5, 9, 7, 4), 2, 63.633690266445434)
((-8, -8, -19, -3, 1, -1, -8, 2), 2, 63.65478410108163)
((2, 5, -14, -4, 0, 9, 1, 1), 2, 63.674554546335735)
((-11, -11, 5, -12, -4, -8, -1, -8), 2, 63.69396007594807)
((0, 1, -29, -1, 2, 12, 6, 2), 2, 63.71352810705713)
((-1, 0, 11, -4, -4, -15, -21, -4), 2, 63.734826636561124)
((-12, 13, -8, 4, 1, 0, -10, -8), 2, 63.75652144164486)
((7, -9, 4, -2, -4, -6, -10, -8), 2, 65.02666335961867)
((-11, -22, -54, -9, -5, -6, 2, 6), 1, 65.13392917215465)
((24, -12, 14, 5, -4, -5, -2, 8), 1, 65.15408163847123)
((80, -18, -18, -5, -3, -8, -6, -9), 1, 65.17514696407291)
((14, -19, -25, -8, -1, 5, 10, 19), 1, 65.19457815181632)
((-54, 22, 16, -4, 0, 3, 6, 3), 1, 65.21457780970789)
((-71, -7, 6, 5, 0, -3, 4, -17), 1, 65.23526396515055)
((12, 17, 17, -7, -2, 3, 20, 31), 1, 65.2547561622278)
((47, -5, -17, -1, -2, -2, 10, 8), 1, 65.27414002497392)
((16, 25, 18, 4, -1, -1, -1, 14), 1, 65.29394411088875)
((20, 35, 19, -8, -1, 4, -1, 5), 1, 65.3141028491929)
((14, 8, -3, -14, 1, 7, 31, 19), 1, 65.33447939652076)
((127, -1, -4, 7, -4, -6, -19, 6), 1, 65.3523562717025)
((-25, -45, -31, -9, -3, -2, -12, -17), 1, 65.37282746902494)
((112, 25, -17, -3, 5, 4, 31, 15), 1, 65.39129562158249)
((13, -7, 6, 4, -3, -10, -15, -22), 1, 65.40941197265414)
((-50, -6, 2, 2, 1, 0, 2, 8), 1, 65.43193353973874)
((-36, -27, -4, 9, -1, -1, 1, -3), 1, 65.45430971074734)
((-11, -21, 15, -9, 3, 7, 6, -8), 1, 65.474649766511)
((38, -16, 2, 9, 5, 6, 4, -18), 1, 65.49445955423273)
((-9, 30, 13, 0, -1, -1, 6, 5), 1, 65.51857534652731)
((2, -14, -2, 9, 5, 0, 4, 1), 1, 65.54532879469504)
((-25, -11, 17, 0, -1, -1, -3, -12), 1, 65.56432436439107)
((-9, -11, -30, -2, -1, -1, -29, -9), 1, 65.58564285021923)
((74, -7, -3, -2, -2, -1, -6, 1), 1, 65.60599887104223)
((23, 7, -4, 6, 2, 0, 13, 18), 1, 65.62573738617768)
((-7, 16, 5, 7, -1, 1, 11, 3), 1, 65.64529401367294)
((-29, 1, -15, 8, 4, 4, 9, -15), 1, 65.66510893302087)
((-5, -1, 19, 4, 0, 1, -21, -3), 1, 65.68420200361494)
((14, -3, -4, 1, -1, -4, 11, -3), 1, 65.70396161543593)
((-85, -30, -18, -13, -5, -5, 2, -8), 1, 65.7239743874834)
((-19, 15, 34, -1, -4, -1, 4, -10), 1, 65.74449633088726)
((13, 13, 0, -1, 1, 0, -10, -7), 1, 65.7640769059715)
((43, -8, -12, -4, 0, -2, 6, 7), 1, 65.78285010519834)
((-12, -6, 24, 9, 2, 1, -2, -5), 1, 65.80267471761802)
((26, 5, 4, 13, 3, 3, -1, -3), 1, 65.82205744000274)
((-10, -2, -10, 0, 2, 3, 4, 2), 1, 65.84198069368183)
((12, 10, 4, -2, 0, 3, -4, 9), 1, 65.8617357440573)
((-16, -2, 3, -3, -3, -2, 16, 7), 1, 65.88423336355291)
((-22, -12, 10, 3, 2, 0, 4, 9), 1, 65.90607584543542)
((25, 4, 10, 0, -1, -3, -5, 1), 1, 65.92448127811704)
((25, -6, -8, 8, -5, -7, 1, 2), 1, 65.94357263816903)
((-40, -3, -3, 4, 3, -1, 9, -7), 1, 65.96416813488194)
((2, 8, -10, 1, -4, -5, -3, 4), 1, 65.98487139574532)
((-10, -8, -3, -7, -2, -2, -6, -10), 1, 66.00555698100729)
((14, -20, -19, -8, -2, 2, 1, 10), 1, 66.02659265721307)
((-21, 10, 22, 14, 4, 3, 21, -2), 1, 66.04406128302058)
((-26, 11, -12, -7, -4, -5, -20, -24), 1, 66.06341378582873)
((56, 11, 31, 9, 0, -6, 9, 12), 1, 66.08217159017693)
((-8, -15, -37, -1, 0, 5, 2, 10), 1, 66.10218835348923)
((-32, 27, 10, -10, -1, -2, -4, 7), 1, 66.12214410746766)
((-58, -9, -1, 1, -1, 0, 2, -3), 1, 66.1413791530536)
((-2, -5, 2, 3, 2, 1, 1, -8), 1, 66.160037175781)
((-10, -12, 2, -4, -5, -5, -4, -7), 1, 66.18158886551149)
((5, -5, -2, 1, 2, 1, 2, 2), 1, 66.20169457701145)
((34, -1, 1, 3, -2, -1, 5, 9), 1, 66.22129396805848)
((26, 14, 0, -7, -3, 0, 4, 6), 1, 66.24210157198816)
((23, -5, -14, -3, -3, -2, -11, -26), 1, 66.26161144466681)
((0, -4, -2, -9, -2, -1, -13, 5), 1, 66.28359989280602)
((-48, -11, -23, -5, 0, 0, 6, 14), 1, 66.30434591722117)
((-6, 9, 6, 7, -1, 0, 1, -3), 1, 66.32403995826277)
((-13, -3, 10, 2, -2, -3, -2, -15), 1, 66.3438383423707)
((-22, -6, -3, 2, -3, -5, -3, 0), 1, 66.3631172918698)
((-21, -4, -20, -3, -1, -1, -14, -8), 1, 66.38488279935912)
((-8, -5, 22, -16, -1, 0, 4, -3), 1, 66.40475872804092)
((6, -13, -1, 10, 1, -3, -4, -9), 1, 66.42519970578677)
((16, 29, 10, -1, -3, 1, 5, -2), 1, 66.44428080258633)
((13, -7, -5, 0, 1, 2, 4, 8), 1, 66.46337330299973)
((-10, -17, 9, -1, -1, -1, -1, -3), 1, 66.48353831329148)
((-23, 3, -3, 5, 1, 1, 4, 3), 1, 66.50345700552505)
((-5, 9, -2, -4, -1, -2, -6, -7), 1, 66.52955075463414)
((-2, -19, 0, 1, 1, 1, 1, 0), 1, 66.55124898080201)
((38, 1, -17, -2, 2, -3, -6, -13), 1, 66.56975077402029)
((0, 3, -9, -1, 0, -2, -15, -5), 1, 66.59141935079226)
((14, 21, -8, 3, 1, 2, 3, 4), 1, 66.60925460278362)
((16, -7, -1, -2, -1, 2, 3, -7), 1, 66.62927307663799)
((5, 2, 2, 2, 0, 0, -6, -4), 1, 66.65021239230713)
((6, 8, -3, -9, -1, 3, 15, 8), 1, 66.66952327192487)
((-14, -23, -10, 2, 2, -2, 1, 14), 1, 66.68848862204433)
((-33, -5, -5, -14, -5, -2, -3, -7), 1, 66.71039838524828)
((-34, -7, -7, -4, -2, -1, -9, -15), 1, 66.72932325253873)
((25, -3, 7, 1, -1, -1, -7, -14), 1, 66.75398071648905)
((5, 33, 8, -3, 0, -2, 1, -14), 1, 66.77460301169441)
((0, 6, 3, 6, 4, 3, -6, -6), 1, 66.79323309556798)
((15, -3, -15, -9, -3, -2, 0, 0), 1, 66.81156497494055)
((-15, -13, -7, -2, -5, -6, -15, -1), 1, 66.83419829744047)
((-33, -4, 6, -2, -3, 0, 0, -10), 1, 66.8532639993614)
((58, 17, 2, 0, 1, 5, -1, -2), 1, 66.8745152038681)
((51, 54, 5, 8, 3, -1, -6, -3), 1, 66.89290410130971)
((-21, -36, -50, -7, -3, -1, 18, 3), 1, 66.91268537999692)
((63, 10, -20, 1, 2, 8, 21, -15), 1, 66.93089238979833)
((-12, -9, 65, -17, -8, -8, -11, -16), 1, 66.95097985551621)
((2, 9, 49, 5, 4, 3, -2, 3), 1, 66.96985454690592)
((7, 3, -72, -4, -2, -1, -3, -16), 1, 66.98936441958456)
((-7, -36, -86, -15, -6, 7, 18, 12), 1, 67.00979912534282)
((8, 2, 3, -4, -5, -15, -27, 28), 1, 67.03077436239545)
((-7, -13, 117, -11, -6, -1, 5, -10), 1, 67.05022379592093)
((0, -12, -78, -16, -1, 5, 3, 13), 1, 67.07027648061671)
((2, -2, -34, -3, -4, -4, -8, -8), 1, 67.0899414424431)
((7, 16, -43, 21, 15, 5, -3, 3), 1, 67.10888797659979)
((-4, -4, 68, 3, -1, -5, -8, 1), 1, 67.13038321844192)
((-12, -7, 94, -7, -11, -5, 3, -1), 1, 67.15127007748755)
((4, 3, 23, 13, 5, 6, 14, 8), 1, 67.17146302663313)
((1, 4, 68, -7, -11, -8, 1, 7), 3, 67.20942850789415)
((-6, 7, -13, -1, -2, 0, 6, -1), 3, 67.22899996008735)
((-3, 7, 46, 1, 0, 9, 13, -14), 3, 67.25028708597755)
((0, 3, -7, -1, 1, 3, 2, 11), 3, 67.26976445835686)
((-2, 3, 39, 3, -3, 0, -2, -1), 3, 67.29032688458973)
((4, 3, -67, -3, 3, 0, -2, 3), 3, 67.30890907328532)
((7, 7, -19, -4, 0, 1, 0, 2), 3, 67.32895206490937)
((-11, -22, 71, -15, -9, -2, 8, -12), 3, 67.34828575175473)
((0, 1, -24, 8, 1, 2, 10, 12), 3, 67.36766790395876)
((5, 7, 6, 9, 3, 5, 3, -1), 3, 67.38608873151902)
((0, 12, 29, 4, -3, -8, -13, -1), 3, 67.40584435207518)
((-1, -4, -34, 4, 2, -3, -3, 3), 3, 67.42364197214097)
((-2, -2, -12, 2, -1, -3, -5, -4), 3, 67.44485383418005)
((0, -7, 45, -2, -3, -15, -25, 6), 3, 67.4653244613218)
((-16, -6, 20, -11, -4, -1, -4, -4), 3, 67.48514394211526)
((-6, -3, 0, -6, -3, -8, -12, -12), 3, 67.5061186089872)
((5, 7, 39, 3, 2, 3, 10, -1), 3, 67.53691691897163)
((-2, 11, 36, 10, 3, 0, 0, -2), 3, 67.55573345193092)
((3, 10, 21, -2, -1, 0, -3, 0), 3, 67.57531231647309)
((0, 3, 46, 1, -1, -3, -3, -33), 3, 67.59367954704845)
((-1, 2, 24, -2, -2, 1, 10, 1), 3, 67.6133011751424)
((-7, -6, -30, -8, -4, -7, -10, 0), 3, 67.63623441268538)
((-2, -11, -24, 0, -3, -5, -8, 0), 3, 67.65491239173694)
((-10, -19, 6, -10, -9, -7, -10, -9), 3, 67.67346208013319)
((-2, -12, -17, -2, -3, -3, 2, -1), 3, 67.69372002987747)
((-2, -1, 22, 4, 1, 7, 17, 5), 3, 67.71389587360234)
((0, -3, 2, 9, 4, 0, 4, -12), 3, 67.73222718279423)
((-1, -8, -25, -1, 0, -5, -11, -3), 3, 67.75354509844169)
((-1, -12, -6, -6, -1, 2, 10, 1), 3, 67.77272084523585)
((0, 6, 18, 2, -3, -1, 2, -6), 3, 67.79170159023394)
((-5, -4, 59, -4, -7, -8, -1, -2), 3, 67.81179988938494)
((-2, 2, 27, 1, -3, -2, -1, 7), 3, 67.8307829151058)
((-1, -15, -31, -5, 1, -3, -12, 3), 3, 67.84964221161687)
((-2, 3, -55, -8, -4, -7, -9, 2), 3, 67.86934651591089)
((0, -5, -18, 4, 3, 0, 3, -10), 3, 67.88837002446076)
((3, 11, 26, 5, 4, 0, -2, -5), 3, 67.90760792095016)
((-2, -5, -21, -1, -3, -6, -9, -8), 3, 67.92792916075105)
((7, 8, 67, 4, -2, 1, 3, -11), 3, 67.95060125553788)
((0, 5, -26, 1, 1, 2, 7, 3), 3, 67.97100631190024)
((-1, -1, -32, 3, 0, 2, 8, -5), 3, 67.99142733332192)
((-1, 8, -3, 1, 0, 2, 5, -8), 3, 68.00954026330945)
((0, -5, -10, 0, 1, 0, 3, 2), 3, 68.03129835844979)
((-5, -8, 9, -10, -4, -2, 1, -5), 3, 68.05267386234698)
((-1, 1, 14, 2, 0, 3, 7, 4), 3, 68.0727117223448)
((1, -11, -4, -5, -4, 0, 4, 6), 3, 68.09098715382905)
((-6, -27, -18, -3, -2, -4, -7, -2), 3, 68.1108716352212)
((-12, -17, 104, -12, -11, -10, -9, 1), 3, 68.12990654738486)
((-1, 9, -18, 3, 3, 2, 1, -4), 3, 68.14961826402786)
((1, 5, -22, -3, -1, 3, -4, 10), 3, 68.17055872005838)
((-3, -13, -5, 0, 0, 2, 6, -1), 3, 68.19011876863779)
((2, 17, 51, 15, 5, 1, 2, -13), 3, 68.21035448133513)
((0, -13, -60, -3, 3, 4, 3, 2), 3, 68.2298404064248)
((-1, 8, -6, 5, -4, -7, -8, -2), 3, 68.24927045380682)
((2, 3, -21, -4, -3, -5, 0, 2), 3, 68.26925984844597)
((-4, 5, -5, 0, -3, -21, -25, -20), 3, 68.28910042592497)
((4, 6, 20, -1, 2, 10, 10, 2), 3, 68.3084831483097)
((2, -2, 4, 2, 2, 2, 1, 8), 3, 68.33099844340671)
((0, 2, -15, 0, 0, 3, 6, 3), 3, 68.35108476876322)
((-1, -4, -5, -5, 1, -6, -11, 3), 3, 68.37149153566766)
((-3, 3, 36, -2, -4, -4, -19, -10), 3, 68.39017749724889)
((-1, 0, -4, -4, -3, 5, 11, 1), 3, 68.40951460517839)
((-9, -16, -20, -14, -10, -5, 0, 0), 3, 68.43043510488474)
((1, 2, 21, -1, -2, -3, -1, 3), 3, 68.44935655109104)
((-3, -6, -38, -2, -1, 0, -3, -2), 3, 68.46833102410154)
((6, 7, 12, 6, 1, 5, 8, 3), 3, 68.48767497419932)
((-3, -6, -25, -2, 0, -1, -2, -7), 3, 68.50635694451572)
((0, -9, -43, -7, -3, -1, -4, -2), 3, 68.53150134277553)
((-2, 6, 38, 6, -1, -6, -8, -6), 3, 68.55213162051054)
((-3, -2, 11, 3, 2, -1, 4, -4), 3, 68.57093389895257)
((1, 9, 40, -1, -2, -3, -3, 8), 3, 68.58900748647247)
((-3, -13, -37, -1, -2, -1, -4, 6), 3, 68.60809827634377)
((-4, -14, -71, -11, -3, -3, -1, -3), 3, 68.62735441861525)
((-5, -26, -68, -12, -4, -9, -8, 0), 3, 68.64720982079221)
((1, 15, 72, 9, 5, 8, 9, -4), 3, 68.6669397832173)
((-4, -5, 13, 5, -1, -4, -7, -8), 3, 68.68703409110347)
((1, 9, 13, 2, 1, 0, 4, 6), 3, 68.70665115775189)
((3, 5, 3, 3, 1, 5, 8, 0), 3, 68.72672379877183)
((-4, -9, -59, -1, 1, 1, -6, -7), 3, 68.75025344531682)
((-5, -17, -24, -6, -2, 2, 3, -1), 3, 68.77070126523095)
((1, 5, 34, -5, -3, -3, -1, 0), 3, 68.79047855265334)
((-6, -12, -1, 1, 0, -4, -8, -6), 3, 68.81105751412623)
((8, 24, 43, 9, 1, 1, 7, 22), 3, 68.8326040722305)
((2, 6, 25, 2, -2, -11, -33, -6), 3, 68.85342536049674)
((-2, -1, 0, 3, 4, 2, -3, -2), 3, 68.87157934349395)
((-4, -16, 3, -9, -2, -3, -3, -5), 3, 68.8909193023269)
((0, 5, 28, 3, -2, -5, 3, 1), 3, 68.91107176864348)
((-6, -11, -24, -14, -11, -1, 3, -14), 3, 68.93123848947731)
((1, 11, 38, 4, -1, 4, 3, -2), 3, 68.95133564826693)
((-3, -5, -12, -2, -2, -1, 2, 1), 3, 68.97228294646574)
((-1, -3, -4, -3, -2, 1, -2, 0), 3, 68.98994942497278)
((3, 1, -51, -3, 2, -2, -1, 1), 3, 69.00873687871686)
((4, 9, 6, 29, 10, 1, -2, -2), 3, 69.02767257944042)
((-7, -20, -43, -18, -8, 4, 9, 4), 3, 69.04706157381274)
((0, 0, 3, -3, 2, -5, -15, -1), 3, 69.06601152905355)
((0, 0, 3, -3, 2, -5, -15, -1), 3, 69.0835137955218)
((-5, -11, -18, -12, -5, -7, -6, -5), 3, 69.1057018069026)
((1, 2, 5, -4, 0, 2, 4, -4), 3, 69.12460671786889)
((-5, -1, -2, -5, -3, -1, 2, 0), 3, 69.1456594994954)
((-4, -12, -4, -4, -5, -5, -1, 0), 3, 69.16573157033464)
((0, 1, 25, 1, -1, -26, -40, -5), 3, 69.1864821561953)
((6, 13, 5, 6, 0, 13, 23, 0), 3, 69.20525535542214)
((-4, -13, 8, -3, -3, -1, -5, 15), 3, 69.22396982603787)
((-15, -27, 14, 2, -5, -6, 0, -9), 3, 69.2449507648974)
((-3, -18, -12, -12, -5, 2, 9, -6), 3, 69.26439221589321)
((-10, -5, 20, 3, -3, -3, 18, -2), 3, 69.2850481517593)
((-1, 6, 22, 2, -1, -1, -9, -9), 3, 69.30512535422476)
((2, 0, -38, -2, 1, 11, 24, 29), 3, 69.32547054161464)
((7, 11, 25, 17, 7, 4, 2, 8), 3, 69.34519309169076)
((1, 12, 18, 5, -1, -6, -7, -2), 3, 69.3657623600919)
((-1, -9, -2, -9, -6, -5, -3, -2), 3, 69.38623241705297)
((8, 2, 18, -2, 0, 0, -4, 11), 3, 69.40463956027665)
((15, 5, -18, -1, 1, 5, 7, 13), 3, 69.42492715941682)
((1, 8, 1, 1, 2, 0, 9, 0), 3, 69.44428992547738)
((6, -11, -22, -7, -4, 0, 3, -4), 3, 69.46308080030562)
((2, 8, 14, 5, 4, -5, -5, -1), 3, 69.4822901877605)
((-1, -1, -12, -9, 0, -2, -4, -3), 3, 69.50159137430651)
((5, -3, -18, -6, -5, -4, 1, -3), 3, 69.51959083833667)
((-3, -5, -65, -10, -8, -27, -59, -12), 3, 69.55096389045688)
((-5, -12, 24, 4, 0, 10, 9, 9), 3, 69.57089797756909)
((6, 20, 75, 2, 4, 7, 19, -3), 3, 69.59191882907693)
((6, 6, 32, 15, 6, -10, -10, -1), 3, 69.61352069470816)
((4, -6, -5, -7, -4, -3, 16, 1), 3, 69.63326833273464)
((8, -9, 11, 3, 0, -11, -14, 1), 2, 69.65344417645952)
((-3, -6, 3, -8, -5, -5, -22, 2), 2, 69.67200184738543)
((1, 10, 16, -9, -6, -9, -19, -7), 2, 69.69183558269616)
((3, 55, 62, 11, 7, 20, 23, 12), 2, 69.71266314295)
((4, 31, -17, -3, -1, 7, 13, 2), 2, 69.73148081627068)
((5, -24, -20, 4, -5, -23, -34, -11), 2, 69.75275938945052)
((3, -44, -16, -13, -4, 7, -7, -2), 2, 69.77191803082397)
((-5, -12, -6, -7, -4, 1, -3, -4), 2, 69.79132127971354)
((-14, -28, -49, -1, -4, 5, 17, 5), 2, 69.81079979245423)
((0, 10, -22, 4, 4, 6, 16, 1), 2, 69.8304847106048)
((-35, 12, 19, 10, 7, 5, 15, 1), 2, 69.85043761367977)
((12, -16, -50, -1, 0, -9, -4, -1), 2, 69.86886870449246)
((6, -3, 3, 8, 2, 1, 0, 6), 2, 69.88883871298815)
((10, -8, -7, 2, 2, 11, -1, 4), 2, 69.9106720719796)
((1, 10, 36, 1, -4, -2, -6, -1), 2, 69.93076809040785)
((-10, 25, 71, -2, -4, -5, -4, -7), 2, 69.95080766094776)
((-4, -19, 15, -11, -9, -2, -2, -4), 2, 71.09776261097142)
((-8, -10, -32, -8, -2, -1, -5, -2), 2, 71.11719721979895)
((3, 13, 10, 3, 1, 3, 2, 1), 2, 71.13621217563846)
((-6, 21, 27, -4, -5, -11, -19, -5), 2, 71.15615196455757)
((-4, -10, -19, -10, -1, -4, -13, -3), 2, 71.17698351607625)
((2, -2, 23, 5, -2, -2, 3, 1), 2, 71.19713598239282)
((-8, 5, 15, 3, 3, 0, 15, 4), 2, 71.21754731074277)
((-6, -15, -23, -16, -13, -11, -9, -4), 2, 71.23753100357503)
((11, -8, 2, 5, 2, 2, 4, 1), 2, 71.25951432008803)
((13, 23, -26, 1, 0, -2, -21, -4), 2, 71.28021415986726)
((-16, -29, -20, -11, -2, 4, 9, -4), 2, 71.30005473734626)
((0, -15, -26, -2, 0, 3, 20, 4), 2, 71.32301363302031)
((-5, -14, 25, 9, -1, -4, -12, -2), 2, 71.34393014146183)
((7, 18, 19, 8, 7, 10, 15, 5), 2, 71.36248553166499)
((-2, 35, 13, 6, 3, 2, 6, 1), 2, 71.38515705627113)
((-7, -15, 5, -11, -6, 3, 3, -4), 2, 71.4035185850396)
((-1, 18, 1, 6, 1, 4, 6, 3), 2, 71.42125975721706)
((5, 19, 65, 5, -1, -2, -6, 3), 2, 71.44199266747633)
((6, 13, 12, -9, -2, 0, 3, 3), 2, 71.46032568721027)
((3, -17, 11, 0, -1, -5, -12, 1), 2, 71.47951055689548)
((-1, 1, -9, -6, 1, 0, 1, -1), 2, 71.50196598302001)
((2, 6, -43, -1, 1, -7, -23, -5), 2, 71.52623116265545)
((4, 12, 20, 9, 1, -13, -28, -1), 2, 71.54973230016593)
((-19, -10, -18, -10, -7, -9, -6, -7), 2, 71.56775115033955)
((-8, 36, -2, -2, -1, -1, -3, -2), 2, 71.58967060661524)
((-3, -4, 17, 0, -3, -3, -10, 1), 2, 71.61179532793942)
((0, -4, 21, 0, -2, 3, 5, 0), 2, 71.63262630927741)
((-7, -45, 6, -3, -4, -8, -10, 0), 2, 71.65223254249271)
((-3, 11, 4, 0, 1, -3, -2, 0), 2, 71.67237132447272)
((-12, -13, -6, -11, -4, 1, 2, -1), 2, 71.69407354190542)
((-10, -23, -57, -17, -7, -9, -5, -4), 2, 71.71282564444672)
((3, 11, -12, 3, 1, 1, -14, -8), 2, 71.73312293665863)
((3, 7, 1, 8, 2, -6, -9, 1), 2, 71.75346242224161)
((1, 23, 13, 8, 3, 3, 1, 3), 2, 71.7732043584612)
((-4, 79, 21, 8, 2, -4, -3, -8), 2, 71.79193707485902)
((4, 7, 4, 0, 0, 2, 1, 8), 2, 71.81179874902357)
((-6, -31, -1, -9, -6, -15, -21, 2), 2, 71.83157603644595)
((3, 17, -9, 1, 1, 7, 7, -1), 2, 71.85124841062132)
((2, 0, 24, 0, -1, 3, 0, -2), 2, 71.87208395340484)
((-5, -9, -14, -1, -3, -2, 1, -7), 2, 71.89215887514753)
((1, -2, -19, 2, 2, 1, 8, -2), 2, 71.91146120205494)
((2, -10, -21, -13, -4, 0, 7, -24), 2, 71.93062440487391)
((-8, 18, 20, 5, 2, 8, 18, 29), 2, 71.95003962755797)
((-5, -13, -9, 2, -4, -4, -8, 11), 2, 71.96926269934943)
((1, -7, -26, -4, 0, -2, -10, -4), 2, 71.99141022790123)
((-10, 2, -3, 3, -1, 3, 11, -8), 2, 72.01156554512124)
((-1, 9, 11, -4, -1, -3, -1, -1), 2, 72.03178130149445)
((-6, 11, -1, -2, -5, -8, -3, -5), 2, 72.04991361762542)
((-3, -10, 5, -7, -3, -2, 1, -1), 2, 72.06969831739679)
((-3, 11, 1, -1, -1, 10, 17, 2), 2, 72.09214176972682)
((3, 11, 31, 8, 0, 3, 1, 0), 2, 72.11371911758836)
((0, 8, 3, -1, 0, -2, -6, -1), 2, 72.13385903992976)
((-4, -4, -8, -1, 1, 2, 0, 1), 2, 72.15390887372209)
((-12, -34, -26, -7, -3, -1, -4, -4), 2, 72.17464292434272)
((-2, 12, 13, 0, -4, -15, -33, -5), 2, 72.1948712246911)
((1, -4, 2, 0, 4, 8, 14, 2), 2, 72.21534755363975)
((3, 6, 0, -1, -1, -1, -8, 0), 2, 72.23465102090853)
((1, 1, -18, 0, 1, -2, 4, 1), 2, 72.25458567820142)
((0, -8, -9, -10, -3, -2, -1, -3), 2, 72.27460130115233)
((1, 13, 18, 4, 0, 4, 18, 2), 2, 72.29407069100198)
((4, 11, 37, 6, -5, -13, -26, -3), 2, 72.31385082932782)
((-2, -11, -25, -6, -2, 1, 3, -1), 2, 72.33195748732773)
((5, 0, -57, 1, 4, 2, 0, 2), 2, 72.35085612630643)
((-3, -6, -8, 2, 2, -2, -19, 0), 2, 72.37307891870934)
((-8, -3, 0, -4, -2, 7, 17, -2), 2, 72.39241317573538)
((-2, -4, -8, -4, -5, -14, -29, -5), 2, 72.41171664300417)
((2, -2, 5, -3, -2, 3, 8, 1), 2, 72.43215191894312)
((-17, 55, 12, -1, -2, -8, 5, -4), 2, 72.4520398214194)
((-4, -14, -19, -8, -1, 6, 9, 1), 2, 72.47492345324233)
((14, 25, 8, 11, 4, -4, -26, 3), 2, 72.49549158128211)
((47, 45, 14, 7, 5, 9, 10, 7), 2, 72.51633795749873)
((-10, -1, 18, 7, 8, -41, -58, -12), 2, 72.54327899511355)
((-3, 16, -6, 9, 3, 8, -6, -3), 2, 72.56578117605468)
((-25, 56, 28, 6, -4, -12, 10, 1), 2, 72.5845150328139)
((3, -11, -40, -4, -3, -2, -1, 1), 2, 72.60418740698927)
((0, -11, 3, 0, -1, 1, 0, 2), 2, 72.6240319757331)
((4, -33, -1, -8, -11, -7, 4, -3), 2, 72.64317864331207)
((4, -23, -80, -15, -11, 28, 42, 7), 2, 72.66255851479333)
((40, -1, 14, 9, 6, -16, -43, -3), 2, 73.11029974398888)
((-1, -16, 5, 3, 3, 14, -20, -3), 2, 73.12985466094206)
((-27, 7, -26, -6, -6, 6, 17, -1), 2, 73.14700968736993)
((-38, -31, -33, -10, -7, 10, 11, -1), 2, 73.16876379124544)
((-38, -31, -33, -10, -7, 10, 11, -1), 2, 73.18751646396743)
((-5, 6, -23, -8, -7, -25, 19, 7), 2, 73.20672984268715)
((26, 13, -15, -2, 3, 12, 22, 4), 2, 73.22732990084558)
((-11, 5, 13, 0, -3, 19, 44, 6), 2, 73.2455762531146)
((-32, 16, -2, 11, 12, -9, -17, -6), 2, 73.26500516013525)
((-6, -33, -7, 0, 4, 12, 10, 1), 2, 73.28630311945855)
((7, -20, -25, -3, -1, 6, 22, 1), 2, 73.30614996892515)
((12, 11, -4, 15, 25, 89, 41, 7), 2, 73.32686064213749)
((-54, -21, 38, 1, -10, -22, 0, 0), 2, 73.3473569274103)
((-3, 15, -15, -7, 0, -1, -15, -7), 2, 73.36561753419659)
((-13, -14, -12, 5, -4, -34, 15, 3), 2, 73.38588745773535)
((36, -11, -10, 8, 7, 5, 22, 10), 2, 73.40785708991179)
((-18, 25, 27, 2, 5, 35, 4, 2), 2, 73.42744450716432)
((-1, 28, 26, 1, -6, 3, 12, 3), 2, 73.44662367504262)
((-1, -9, -25, -4, -3, -1, 13, 2), 2, 73.46720548741897)
((-33, -8, 15, 2, -1, 5, 16, -5), 2, 73.48586921195327)
((23, -16, -31, -3, 2, -5, 0, 4), 2, 73.50562882377426)
((-5, -16, 5, -6, -8, -16, -2, -1), 2, 73.53417149894801)
((9, 5, 5, 3, 2, -3, -2, -1), 2, 73.55584463716552)
((2, -4, -14, -9, -1, 25, 21, 3), 2, 73.57500898034587)
((35, -20, -19, -7, -8, -11, -13, -3), 2, 73.59416591117726)
((1, -12, 55, 5, 4, 15, -32, -7), 2, 73.615941681919)
((-5, -2, 5, 2, -3, 5, 25, 5), 2, 73.63590655878848)
((-5, 35, 4, -1, 3, -3, -16, -4), 2, 73.65809742107274)
((-7, -11, 20, 0, -5, 7, 31, 5), 2, 73.67807484191741)
((13, -5, -10, 3, 4, 31, 9, 3), 2, 73.69778028657281)
((13, -1, -42, -6, 2, -12, 10, 2), 2, 73.71822981702901)
((20, -4, -15, -7, -3, -3, 2, 3), 2, 73.73966633026006)
((-15, 80, 6, -2, -6, -10, -15, -5), 2, 73.75998985078371)
((0, 13, 17, -3, -9, -29, -19, -6), 2, 73.77882805060923)
((-4, -20, 3, 18, 70, 10, -1, 1), 2, 73.79840976605486)
((13, -28, -9, -15, -52, -7, 5, 0), 2, 73.81780389205339)
((10, -20, -18, -7, -8, -3, 3, 1), 2, 73.83742209906319)
((-6, -31, -21, 4, 3, -9, -28, -8), 2, 73.85637376484608)
((5, 5, 20, 1, -2, 2, 10, 2), 2, 73.87536819418074)
((7, 5, -25, -3, -7, 5, -6, 2), 2, 73.89361169554631)
((0, 0, 26, -3, 0, 3, 17, 1), 2, 74.35740351117269)
((-2, -23, -14, -6, 3, 2, 1, 0), 2, 74.37538872068559)
((-3, -29, 2, 0, -3, 4, 7, 2), 2, 74.39439398345336)
((15, 22, 28, 0, -2, -2, 4, -1), 2, 74.413670082049)
((15, 22, 28, 0, -2, -2, 4, -1), 2, 74.43175336264062)
((-6, 5, -16, 2, -1, 5, 8, 0), 2, 74.45564222302048)
((-7, -18, 5, -4, -1, -5, -8, -2), 2, 74.47516178877086)
((-22, 50, 59, 16, 7, 12, 5, 2), 2, 74.49438828164645)
((18, -1, -11, 4, 7, 13, 15, 7), 2, 74.5153150533404)
((8, -1, -2, -2, -1, -1, 3, 6), 2, 74.54313873066374)
((-6, -18, 25, 1, -4, -6, -6, -4), 2, 74.56324330180234)
((-10, -24, -52, -11, -5, -6, -19, -4), 2, 74.58195720223739)
((3, 8, 12, 5, 0, 1, 21, 7), 2, 74.60232519685488)
((-15, -23, -12, 6, 4, 10, 13, 1), 2, 74.62116510722248)
((-4, -49, -22, -1, -1, 5, 13, -3), 2, 74.64191854398659)
((-5, -17, -30, -4, -2, -2, -5, -2), 2, 74.66254597081816)
((15, 10, 2, 5, 7, 6, 9, 4), 2, 74.68252054075937)
((5, -22, -35, -3, -1, 2, 2, -3), 2, 74.70296379922797)
((-19, -4, 1, -5, -3, -1, -5, -1), 2, 74.72172445447963)
((-6, 67, -41, -6, -2, 3, -2, -7), 2, 74.7435458396766)
((-4, -16, 0, -3, -3, -4, -1, -2), 2, 74.76383343881676)
((-49, -49, 50, 6, 4, 5, 23, 2), 2, 74.78393173796776)
((37, 6, 6, -4, 0, 12, 27, 1), 2, 75.1410575711443)
((3, 7, 12, -7, -5, 43, 37, 8), 2, 75.16036788058136)
((-8, 7, 10, 3, -12, -45, 6, 2), 2, 75.17876989217883)
((12, -19, 3, -11, -9, 35, 12, 4), 2, 75.19985574428536)
((-47, 88, 21, 4, -4, -46, -56, -24), 2, 75.22016615065314)
((-11, 27, 10, 0, -3, -16, -27, -2), 2, 75.23878996253913)
((14, -22, 33, 9, 3, -35, -48, -7), 2, 75.25889396349703)
((17, -10, 6, 2, -1, 20, 41, 6), 2, 75.27757593381342)
((28, 4, 18, 9, 8, 25, 16, -1), 2, 75.2965287399577)
((32, 0, 0, 0, 0, 57, 36, 3), 2, 75.31875438326405)
((21, 45, -13, 1, 5, 17, 11, 4), 2, 75.33971935706425)
((13, -30, 6, 0, 3, -13, -5, -1), 2, 75.35908782493172)
((6, -4, 31, 2, 2, -4, -1, 1), 2, 75.37901335933357)
((9, 5, 4, 11, 14, -50, -58, -11), 2, 75.39901985939345)
((16, 11, -63, -15, -12, -4, -25, -3), 2, 75.4179846393322)
((13, -19, -14, -11, -1, 26, 14, 3), 2, 75.43880478723707)
((33, -24, 26, 4, 3, -17, -26, 4), 2, 75.45900001710542)
((24, 37, 57, 14, 6, -68, -47, -10), 2, 75.478637040078)
((-18, 16, 8, 9, 7, 17, -2, -1), 2, 75.49762633778644)
((5, 24, 9, 9, 4, -2, -7, 1), 2, 75.51820244835588)
((3, -9, 51, 8, 1, -36, -15, 2), 2, 75.54145612744679)
((-11, -19, 41, 6, -3, 7, 22, -9), 2, 75.56071797152518)
((28, -3, 14, -1, 1, -18, -13, 2), 2, 75.58062126888011)
((63, -30, -41, -5, -1, 25, 29, 14), 2, 75.59999714909655)
((43, 17, -23, -7, -2, 48, 37, -3), 2, 75.61930460763016)
((-3, -15, -28, -5, -6, -5, 10, -3), 2, 75.6389439113255)
((-12, -9, 16, 8, 4, -3, 18, 0), 2, 75.65736530906645)
((-1, 28, 12, 1, -10, 7, 7, 6), 2, 75.67893467439832)
((11, 38, 40, 4, 1, -9, -5, 8), 2, 75.69793765644333)
((-14, 13, 25, 8, 2, 5, -4, -10), 2, 75.71903149107952)
((19, -17, -29, -6, -6, 26, 44, 15), 2, 75.74003409680527)
((16, 41, -4, -1, -8, -5, 30, 4), 2, 75.76041178449451)
((10, 7, 58, 2, -2, -12, -11, 4), 2, 75.77941419635883)
((9, 56, -30, 0, -2, 2, 18, 2), 2, 75.7962653164788)
((-41, -6, 17, 9, 5, 18, 7, -1), 2, 75.81903206126022)
((12, -48, -14, -7, -6, -5, 11, -1), 2, 75.83731205418998)
((84, 57, -6, 1, 11, 41, 6, 5), 2, 75.85614911365411)
((26, -25, 35, -5, -3, 20, 37, 9), 2, 75.8779876042718)
((-13, 10, -12, -2, -6, 26, 32, 1), 2, 75.89532679906262)
