((1, 13, 0, -7, -25, 0, 22, 7), 0, 0.0)
((1, 13, 0, -7, -25, 0, 22, 7), 0, 0.0008740874965575321)
((1, 13, 0, -7, -25, 0, 22, 7), 0, 0.0026188414035803946)
((1, 13, 0, -7, -25, 0, 22, 7), 0, 0.003588149129704207)
((1, 13, 0, -7, -25, 0, 22, 7), 0, 0.0048026346924358075)
((1, 13, 0, -7, -25, 0, 22, 7), 0, 0.005851197579695626)
((1, 13, 0, -7, -25, 0, 22, 7), 0, 0.006764057385298111)
((1, 13, 0, -7, -25, 0, 22, 7), 0, 0.008394775089247583)
((1, 13, 0, -7, -25, 0, 22, 7), 0, 0.009849306859448669)
((-8, 0, -5, -3, 9, 23, -10, -5), 0, 0.011169275910023155)
((-8, 0, -5, -3, 9, 23, -10, -5), 0, 0.012217268616267606)
((-8, 0, -5, -3, 9, 23, -10, -5), 0, 0.013398113499092557)
((-8, 0, -5, -3, 9, 23, -10, -5), 0, 0.014207200359898257)
((-8, 0, -5, -3, 9, 23, -10, -5), 0, 0.015421115741614491)
((-8, 0, -5, -3, 9, 23, -10, -5), 0, 0.016713145922435994)
((1, 7, -2, -7, 4, -31, -4, 5), 0, 0.01794530709664397)
((4, -13, -2, 2, 0, -7, 24, 8), 0, 0.01940440031496799)
((4, -13, -2, 2, 0, -7, 24, 8), 0, 0.020212346813742958)
((4, -13, -2, 2, 0, -7, 24, 8), 0, 0.02106077616460898)
((4, -13, -2, 2, 0, -7, 24, 8), 0, 0.022201138195342876)
((4, -13, -2, 2, 0, -7, 24, 8), 0, 0.023444132808842822)
((4, -13, -2, 2, 0, -7, 24, 8), 0, 0.02497335829205698)
((4, -13, -2, 2, 0, -7, 24, 8), 0, 0.027030001214485563)
((4, -13, -2, 2, 0, -7, 24, 8), 0, 0.02821084609731051)
((4, -13, -2, 2, 0, -7, 24, 8), 0, 0.029310725275953357)
((4, -13, -2, 2, 0, -7, 24, 8), 0, 0.03215250745654223)
((4, -1, 0, 0, -47, 14, -66, -14), 0, 0.033640109725634595)
((0, 2, 1, 6, 44, 35, 60, 11), 0, 0.034626522882219415)
((0, 2, 1, 6, 44, 35, 60, 11), 0, 0.03629316199013701)
((0, 2, 1, 6, 44, 35, 60, 11), 0, 0.03718378473614018)
((0, 2, 1, 6, 44, 35, 60, 11), 0, 0.038440463694008935)
((0, 2, 1, 6, 44, 35, 60, 11), 0, 0.03988359184390269)
((0, 2, 1, 6, 44, 35, 60, 11), 0, 0.040899654413286586)
((0, 2, 1, 6, 44, 35, 60, 11), 0, 0.04170475000698472)
((0, 2, 1, 6, 44, 35, 60, 11), 0, 0.042548047728712436)
((0, 2, 1, 6, 44, 35, 60, 11), 0, 0.04350937292062111)
((0, 2, 1, 6, 44, 35, 60, 11), 0, 0.04439657458053208)
((0, 2, 1, 6, 44, 35, 60, 11), 0, 0.04599593232863637)
((0, 2, 1, 6, 44, 35, 60, 11), 0, 0.04703708286269642)
((-7, -8, -4, -7, 4, -37, -5, -5), 0, 0.048093058103156006)
((1, 5, 5, 9, 21, -16, -21, -6), 0, 0.049218595427490366)
((1, 5, 5, 9, 21, -16, -21, -6), 0, 0.05043821261936027)
((1, 5, 5, 9, 21, -16, -21, -6), 0, 0.05129006305631849)
((1, 5, 5, 9, 21, -16, -21, -6), 0, 0.05219779123278267)
((1, 5, 5, 9, 21, -16, -21, -6), 0, 0.053447057837451656)
((1, 5, 5, 9, 21, -16, -21, -6), 0, 0.055081766808508695)
((2, 6, 10, 30, 20, -2, 29, 7), 0, 0.056257480062195345)
((2, 6, 10, 30, 20, -2, 29, 7), 0, 0.057205120909735216)
((2, 6, 10, 30, 20, -2, 29, 7), 0, 0.05795490894494275)
((2, 6, 10, 30, 20, -2, 29, 7), 0, 0.05863627525830625)
((2, 6, 10, 30, 20, -2, 29, 7), 0, 0.059519485651109656)
((2, 6, 10, 30, 20, -2, 29, 7), 0, 0.06047168794677246)
((2, 6, 10, 30, 20, -2, 29, 7), 0, 0.06153393517840109)
((2, 6, 10, 30, 20, -2, 29, 7), 0, 0.06251578688686298)
((2, 6, 10, 30, 20, -2, 29, 7), 0, 0.0633847427542822)
((2, 6, 10, 30, 20, -2, 29, 7), 0, 0.06503142552666195)
((2, 6, 10, 30, 20, -2, 29, 7), 0, 0.06606117244041466)
((2, 6, 10, 30, 20, -2, 29, 7), 0, 0.06708065609589076)
((2, 6, 10, 30, 20, -2, 29, 7), 0, 0.06855970564975263)
((2, 6, 10, 30, 20, -2, 29, 7), 0, 0.07018073027644087)
((0, -3, -6, -10, -7, -1, 10, -2), 0, 0.07134561009083554)
((0, -3, -6, -10, -7, -1, 10, -2), 0, 0.07255838511052104)
((0, -3, -6, -10, -7, -1, 10, -2), 0, 0.0740186186908758)
((0, -3, -6, -10, -7, -1, 10, -2), 0, 0.07502669872604456)
((0, -3, -6, -10, -7, -1, 10, -2), 0, 0.07601767333075231)
((0, -3, -6, -10, -7, -1, 10, -2), 0, 0.07702632354693645)
((-4, 1, -7, -7, -23, -5, -35, 3), 0, 0.07808172860638067)
((-4, 1, -7, -7, -23, -5, -35, 3), 0, 0.07906358031484255)
((-4, 1, -7, -7, -23, -5, -35, 3), 0, 0.07984130721980306)
((-4, 1, -7, -7, -23, -5, -35, 3), 0, 0.08072565797463721)
((-4, 1, -7, -7, -23, -5, -35, 3), 0, 0.08142412971846172)
((-4, 1, -7, -7, -23, -5, -35, 3), 0, 0.08336274517070935)
((-4, 1, -7, -7, -23, -5, -35, 3), 0, 0.08586869073324709)
((-4, 1, -7, -7, -23, -5, -35, 3), 0, 0.08737853006193877)
((-4, 1, -7, -7, -23, -5, -35, 3), 0, 0.08847897942159698)
((-4, 1, -7, -7, -23, -5, -35, 3), 0, 0.0894705242073201)
((-4, 1, -7, -7, -23, -5, -35, 3), 0, 0.09051224492239551)
((-4, 1, -7, -7, -23, -5, -35, 3), 0, 0.09178945039681748)
((-2, 1, -3, -2, 32, 9, -25, -7), 0, 0.09302275193305619)
((-2, 1, -3, -2, 32, 9, -25, -7), 0, 0.09377025924420225)
((-2, 1, -3, -2, 32, 9, -25, -7), 0, 0.0946078551557763)
((-2, 1, -3, -2, 32, 9, -25, -7), 0, 0.09552527640950173)
((-2, 1, -3, -2, 32, 9, -25, -7), 0, 0.0964210307846432)
((-2, 1, -3, -2, 32, 9, -25, -7), 0, 0.09728827610901633)
((-2, 1, -3, -2, 32, 9, -25, -7), 0, 0.0980409150493007)
((-2, 1, -3, -2, 32, 9, -25, -7), 0, 0.09913053096966694)
((-2, 1, -3, -2, 32, 9, -25, -7), 0, 0.10022014689003318)
((-2, 1, -3, -2, 32, 9, -25, -7), 0, 0.10313947368871196)
((-2, 1, -3, -2, 32, 9, -25, -7), 0, 0.10413557992255801)
((-2, 1, -3, -2, 32, 9, -25, -7), 0, 0.10489905230213435)
((-2, 1, -3, -2, 32, 9, -25, -7), 0, 0.1064077512687953)
((-2, 1, -3, -2, 32, 9, -25, -7), 0, 0.10746942831940856)
((1, 1, 2, -2, -9, 13, 31, 0), 0, 0.10865597501238718)
((1, 1, 2, -2, -9, 13, 31, 0), 0, 0.10956370318885136)
((1, 1, 2, -2, -9, 13, 31, 0), 0, 0.1103653776964573)
((1, 1, 2, -2, -9, 13, 31, 0), 0, 0.1118626730428109)
((1, 1, 2, -2, -9, 13, 31, 0), 0, 0.1128633407247799)
((1, 1, 2, -2, -9, 13, 31, 0), 0, 0.11371119989463055)
((1, 1, 2, -2, -9, 13, 31, 0), 0, 0.11463261241546353)
((1, 1, 2, -2, -9, 13, 31, 0), 0, 0.11549358574866762)
((1, 1, 2, -2, -9, 13, 31, 0), 0, 0.11630381297150406)
((1, 1, 2, -2, -9, 13, 31, 0), 0, 0.11728680504199668)
((1, 1, 2, -2, -9, 13, 31, 0), 0, 0.11937822900636265)
((1, 1, 2, -2, -9, 13, 31, 0), 0, 0.12137956437030063)
((1, 1, 2, -2, -9, 13, 31, 0), 0, 0.12261685717364691)
((-2, -2, -6, -15, -37, -12, 9, -2), 0, 0.12356506820220216)
((-2, -2, -6, -15, -37, -12, 9, -2), 0, 0.12444542768992872)
((-2, -2, -6, -15, -37, -12, 9, -2), 0, 0.12553219270521812)
((-2, -2, -6, -15, -37, -12, 9, -2), 0, 0.12639601694349906)
((-2, -2, -6, -15, -37, -12, 9, -2), 0, 0.12741207951288294)
((-2, -2, -6, -15, -37, -12, 9, -2), 0, 0.12873946091665722)
((-2, -2, -6, -15, -37, -12, 9, -2), 0, 0.1310549660200624)
((-2, -2, -6, -15, -37, -12, 9, -2), 0, 0.1329473968100653)
((-2, -2, -6, -15, -37, -12, 9, -2), 0, 0.1338927569335437)
((-2, -2, -6, -15, -37, -12, 9, -2), 0, 0.13535755196202137)
((-2, -2, -6, -15, -37, -12, 9, -2), 0, 0.13714392908316603)
((-4, -5, -6, -9, -26, -5, 10, -3), 0, 0.13813889495498136)
((-3, 3, -2, -4, 13, 18, -22, -5), 0, 0.14022974873833197)
((-3, 3, -2, -4, 13, 18, -22, -5), 0, 0.14116997723267205)
((-3, 3, -2, -4, 13, 18, -22, -5), 0, 0.14203266110892224)
((-3, 3, -2, -4, 13, 18, -22, -5), 0, 0.14298885467169262)
((-3, 3, -2, -4, 13, 18, -22, -5), 0, 0.14432193788562056)
((-2, -3, 0, 3, 20, -22, 16, 0), 0, 0.14533514954992763)
((1, 1, 1, 0, -13, -7, -7, 1), 0, 0.1461824385387629)
((1, 1, 1, 0, -13, -7, -7, 1), 0, 0.1470382802428287)
((1, 1, 1, 0, -13, -7, -7, 1), 0, 0.14793574516101626)
((1, 1, 1, 0, -13, -7, -7, 1), 0, 0.14878816577898984)
((1, 1, 1, 0, -13, -7, -7, 1), 0, 0.1499051503880937)
((1, 1, 1, 0, -13, -7, -7, 1), 0, 0.15091151988021637)
((1, 1, 1, 0, -13, -7, -7, 1), 0, 0.15304912850682706)
((1, 1, 1, 0, -13, -7, -7, 1), 0, 0.1546205473851784)
((1, 1, 1, 0, -13, -7, -7, 1), 0, 0.1554723978221366)
((1, 1, 1, 0, -13, -7, -7, 1), 0, 0.15646337242684435)
((1, 1, 1, 0, -13, -7, -7, 1), 0, 0.157469741918967)
((1, 1, 1, 0, -13, -7, -7, 1), 0, 0.15899725685913507)
((1, 1, 1, 0, -13, -7, -7, 1), 0, 0.15990555521661462)
((-5, -3, -1, -3, -16, -49, -44, -36), 0, 0.1608891174681226)
((-5, -3, -1, -3, -16, -49, -44, -36), 0, 0.16181509143707853)
((-5, -3, -1, -3, -16, -49, -44, -36), 0, 0.1626988720108973)
((-5, -3, -1, -3, -16, -49, -44, -36), 0, 0.16358607367080827)
((-5, -3, -1, -3, -16, -49, -44, -36), 0, 0.1642241062270039)
((-5, -3, -1, -3, -16, -49, -44, -36), 0, 0.16501323675227175)
((-5, -3, -1, -3, -16, -49, -44, -36), 0, 0.16592267547178202)
((-5, -3, -1, -3, -16, -49, -44, -36), 0, 0.16867893050006585)
((-5, -3, -1, -3, -16, -49, -44, -36), 0, 0.16978451148886237)
((-5, -3, -1, -3, -16, -49, -44, -36), 0, 0.17086443433196738)
((-5, -3, -1, -3, -16, -49, -44, -36), 0, 0.17207435844657604)
((-5, -3, -1, -3, -16, -49, -44, -36), 0, 0.17287774349722806)
((-5, -3, -1, -3, -16, -49, -44, -36), 0, 0.1743778897486585)
((0, -1, 0, -5, 7, 24, -19, 4), 0, 0.1754407071613025)
((0, -1, 0, -5, 7, 24, -19, 4), 0, 0.17630111031349122)
((0, -1, 0, -5, 7, 24, -19, 4), 0, 0.17811029467525055)
((0, -1, 0, -5, 7, 24, -19, 4), 0, 0.17904482135943697)
((0, -1, 0, -5, 7, 24, -19, 4), 0, 0.17983851333282777)
((0, -1, 0, -5, 7, 24, -19, 4), 0, 0.1807593556726454)
((0, -1, 0, -5, 7, 24, -19, 4), 0, 0.18183300652458137)
((0, -1, 0, -5, 7, 24, -19, 4), 0, 0.18274529614916848)
((0, -1, 0, -5, 7, 24, -19, 4), 0, 0.18358973423292693)
((0, -1, 0, -5, 7, 24, -19, 4), 0, 0.1849672915660535)
((0, -1, 0, -5, 7, 24, -19, 4), 0, 0.1871374005105401)
((0, -1, 0, -5, 7, 24, -19, 4), 0, 0.1889277688987923)
((0, -1, 0, -5, 7, 24, -19, 4), 0, 0.19000313029377436)
((3, -5, -6, 3, -9, -44, -1, -3), 0, 0.19117998390949176)
((3, -5, -6, 3, -9, -44, -1, -3), 0, 0.1921675374281073)
((3, -5, -6, 3, -9, -44, -1, -3), 0, 0.19288254442137745)
((3, -5, -6, 3, -9, -44, -1, -3), 0, 0.19363233245658498)
((3, -5, -6, 3, -9, -44, -1, -3), 0, 0.19440036628428428)
((3, -5, -6, 3, -9, -44, -1, -3), 0, 0.19567358049159866)
((3, -5, -6, 3, -9, -44, -1, -3), 0, 0.19719995506973598)
((-2, -2, -1, 3, 12, -5, 1, -3), 0, 0.19843040570089787)
((2, 0, 0, -4, -9, 8, 3, 4), 0, 0.19931190555065517)
((2, 0, 0, -4, -9, 8, 3, 4), 0, 0.20009020263663105)
((2, 0, 0, -4, -9, 8, 3, 4), 0, 0.2011570113163826)
((2, 0, 0, -4, -9, 8, 3, 4), 0, 0.20245075204025023)
((2, 0, 0, -4, -9, 8, 3, 4), 0, 0.20345427062729604)
((2, 0, 0, -4, -9, 8, 3, 4), 0, 0.20483581922753016)
((2, 0, 0, -4, -9, 8, 3, 4), 0, 0.20627837719640854)
((2, 0, 0, -4, -9, 8, 3, 4), 0, 0.2075538721277844)
((2, 0, 0, -4, -9, 8, 3, 4), 0, 0.20853971510335387)
((2, 0, 0, -4, -9, 8, 3, 4), 0, 0.20940810078975772)
((2, 0, 0, -4, -9, 8, 3, 4), 0, 0.2103192500523141)
((2, 0, 0, -4, -9, 8, 3, 4), 0, 0.2115582533987065)
((-1, -3, -1, -2, 8, -5, 1, -5), 0, 0.21277673022854565)
((0, -2, -4, -4, -8, -9, 13, 4), 0, 0.2137563012129461)
((0, -2, -4, -4, -8, -9, 13, 4), 0, 0.21439205304508022)
((0, -2, -4, -4, -8, -9, 13, 4), 0, 0.21607408704041273)
((0, -2, -4, -4, -8, -9, 13, 4), 0, 0.21696585014844663)
((0, -2, -4, -4, -8, -9, 13, 4), 0, 0.21867867391860893)
((0, -2, -4, -4, -8, -9, 13, 4), 0, 0.2200904421126575)
((0, -2, -4, -4, -8, -9, 13, 4), 0, 0.221020407348721)
((0, -2, -4, -4, -8, -9, 13, 4), 0, 0.22201366267749023)
((0, -2, -4, -4, -8, -9, 13, 4), 0, 0.22312266475237894)
((0, -2, -4, -4, -8, -9, 13, 4), 0, 0.22505386785142678)
((0, -2, -4, -4, -8, -9, 13, 4), 0, 0.2262267302000366)
((0, -2, -4, -4, -8, -9, 13, 4), 0, 0.22675414763925103)
((0, -10, -2, -4, -2, 5, -3, 1), 0, 0.22780784215564914)
((-4, -6, -2, 0, 2, 9, 24, 3), 0, 0.22882960653518672)
((-4, -6, -2, 0, 2, 9, 24, 3), 0, 0.22981373896771007)
((-4, -6, -2, 0, 2, 9, 24, 3), 0, 0.23158072993433226)
((-4, -6, -2, 0, 2, 9, 24, 3), 0, 0.23232652670243223)
((-4, -6, -2, 0, 2, 9, 24, 3), 0, 0.23544826776156627)
((0, 0, 1, 0, -4, 9, -5, 4), 0, 0.23678192115650956)
((0, 0, 1, 0, -4, 9, -5, 4), 0, 0.2375989905515304)
((0, 0, 1, 0, -4, 9, -5, 4), 0, 0.23849645546971798)
((0, 0, 1, 0, -4, 9, -5, 4), 0, 0.23962313315608305)
((0, 0, 1, 0, -4, 9, -5, 4), 0, 0.24090661062167407)
((0, 0, 1, 0, -4, 9, -5, 4), 0, 0.2421068416590215)
((0, 0, 1, 0, -4, 9, -5, 4), 0, 0.24307044757499163)
((0, 0, 1, 0, -4, 9, -5, 4), 0, 0.24388238534087417)
((0, 0, 1, 0, -4, 9, -5, 4), 0, 0.24499879976896266)
((0, 0, 1, 0, -4, 9, -5, 4), 0, 0.24582670260327547)
((0, 0, 1, 0, -4, 9, -5, 4), 0, 0.24658732407777498)
((0, 0, 1, 0, -4, 9, -5, 4), 0, 0.24754009655445314)
((0, 0, 1, 0, -4, 9, -5, 4), 0, 0.248532781702207)
((0, 0, 1, 0, -4, 9, -5, 4), 0, 0.24966002956958747)
((-5, -1, 0, 4, 14, -1, -31, 1), 0, 0.2510210516532684)
((-5, -1, 0, 4, 14, -1, -31, 1), 0, 0.25233075744556627)
((-5, -1, 0, 4, 14, -1, -31, 1), 0, 0.25390103596188685)
((-5, -1, 0, 4, 14, -1, -31, 1), 0, 0.2547192457189384)
((-5, -1, 0, 4, 14, -1, -31, 1), 0, 0.2553447342927959)
((-5, -1, 0, 4, 14, -1, -31, 1), 0, 0.2567690464691826)
((-11, -54, -8, -2, -19, -72, 67, 12), 0, 0.25848301060137563)
((-11, -54, -8, -2, -19, -72, 67, 12), 0, 0.2595589421773731)
((-11, -54, -8, -2, -19, -72, 67, 12), 0, 0.2604524158284531)
((-11, -54, -8, -2, -19, -72, 67, 12), 0, 0.26125066924996676)
((-11, -54, -8, -2, -19, -72, 67, 12), 0, 0.26291559781483825)
((-11, -54, -8, -2, -19, -72, 67, 12), 0, 0.2646004827152476)
((-11, -54, -8, -2, -19, -72, 67, 12), 0, 0.26592444303292967)
((-11, -54, -8, -2, -19, -72, 67, 12), 0, 0.2667107226531207)
((-11, -54, -8, -2, -19, -72, 67, 12), 0, 0.26759849449404705)
((-11, -54, -8, -2, -19, -72, 67, 12), 0, 0.26865903118262957)
((-11, -54, -8, -2, -19, -72, 67, 12), 0, 0.26946697768140454)
((-11, -54, -8, -2, -19, -72, 67, 12), 0, 0.2703131263082091)
((-11, -54, -8, -2, -19, -72, 67, 12), 0, 0.2718765626523452)
((-11, -54, -8, -2, -19, -72, 67, 12), 0, 0.2727158691069654)
((-11, -54, -8, -2, -19, -72, 67, 12), 0, 0.2737524581929025)
((-11, -54, -8, -2, -19, -72, 67, 12), 0, 0.27492418017948156)
((-11, -54, -8, -2, -19, -72, 67, 12), 0, 0.2761500693625205)
((-11, -54, -8, -2, -19, -72, 67, 12), 0, 0.2769563053182494)
((-11, -54, -8, -2, -19, -72, 67, 12), 0, 0.2778777178390824)
((-11, -54, -8, -2, -19, -72, 67, 12), 0, 0.2787791740243775)
((-11, -54, -8, -2, -19, -72, 67, 12), 0, 0.27975532392268576)
((-1, 7, 1, 2, 28, 40, 0, 0), 0, 0.28103538030218456)
((-1, 7, 1, 2, 28, 40, 0, 0), 0, 0.28211302242122804)
((-1, 7, 1, 2, 28, 40, 0, 0), 0, 0.28305154037252206)
((-1, 7, 1, 2, 28, 40, 0, 0), 0, 0.2839923390478775)
((-1, 7, 1, 2, 28, 40, 0, 0), 0, 0.2854001159748185)
((-1, 7, 1, 2, 28, 40, 0, 0), 0, 0.2865119689547841)
((-1, 7, 1, 2, 28, 40, 0, 0), 0, 0.2875428562305675)
((-1, 7, 1, 2, 28, 40, 0, 0), 0, 0.2884431720538319)
((-1, 7, 1, 2, 28, 40, 0, 0), 0, 0.2900881442831656)
((-1, 7, 1, 2, 28, 40, 0, 0), 0, 0.29112302282605657)
((-1, 7, 1, 2, 28, 40, 0, 0), 0, 0.292344920741988)
((-1, 7, 1, 2, 28, 40, 0, 0), 0, 0.29421511447239157)
((-1, 7, 1, 2, 28, 40, 0, 0), 0, 0.2954598196289376)
((3, -18, -4, -3, -7, 2, 34, 11), 0, 0.29656996206585706)
((3, -18, -4, -3, -7, 2, 34, 11), 0, 0.2975940071694561)
((3, -18, -4, -3, -7, 2, 34, 11), 0, 0.29918538238334524)
((3, -18, -4, -3, -7, 2, 34, 11), 0, 0.30047513184010527)
((3, -18, -4, -3, -7, 2, 34, 11), 0, 0.30183843464784765)
((3, -18, -4, -3, -7, 2, 34, 11), 0, 0.3033733619412155)
((3, -18, -4, -3, -7, 2, 34, 11), 0, 0.3052133360778046)
((3, -18, -4, -3, -7, 2, 34, 11), 0, 0.3064369445367821)
((3, -18, -4, -3, -7, 2, 34, 11), 0, 0.31345074120681093)
((3, -18, -4, -3, -7, 2, 34, 11), 0, 0.3148779042882744)
((-11, 11, 0, -7, -21, 9, -11, -18), 0, 0.31674239620852435)
((-11, 11, 0, -7, -21, 9, -11, -18), 0, 0.319919444826149)
((-11, 11, 0, -7, -21, 9, -11, -18), 0, 0.3211139740533427)
((-11, 11, 0, -7, -21, 9, -11, -18), 0, 0.32202056186777617)
((-11, 11, 0, -7, -21, 9, -11, -18), 0, 0.32310789706408094)
((-11, 11, 0, -7, -21, 9, -11, -18), 0, 0.32432922479899695)
((4, -6, 1, 0, -13, 36, 8, 4), 0, 0.3264947722953606)
((4, -6, 1, 0, -13, 36, 8, 4), 0, 0.3287372942287988)
((4, -6, 1, 0, -13, 36, 8, 4), 0, 0.32961138172535637)
((4, -6, 1, 0, -13, 36, 8, 4), 0, 0.33047691650668337)
((4, -6, 1, 0, -13, 36, 8, 4), 0, 0.3321241694600785)
((6, 2, 1, 0, -23, -4, -16, 1), 0, 0.333846686307502)
((6, 2, 1, 0, -23, -4, -16, 1), 0, 0.3364489924616368)
((6, 2, 1, 0, -23, -4, -16, 1), 0, 0.33731965887210213)
((6, 2, 1, 0, -23, -4, -16, 1), 0, 0.3381589653267223)
((6, 2, 1, 0, -23, -4, -16, 1), 0, 0.3392263441874892)
((-6, -9, 1, -2, -7, 7, -7, -28), 0, 0.34022815223148895)
((-6, 7, -5, 1, -2, -49, -44, 39), 0, 0.3408895622093146)
((-6, 7, -5, 1, -2, -49, -44, 39), 0, 0.34178531658445604)
((-6, 7, -5, 1, -2, -49, -44, 39), 0, 0.34290344155559066)
((-6, 7, -5, 1, -2, -49, -44, 39), 0, 0.3439622677011271)
((-6, 7, -5, 1, -2, -49, -44, 39), 0, 0.3463655806808988)
((-6, 7, -5, 1, -2, -49, -44, 39), 0, 0.3475469957447391)
((-6, 7, -5, 1, -2, -49, -44, 39), 0, 0.3485391107114776)
((-6, 7, -5, 1, -2, -49, -44, 39), 0, 0.34931911834049956)
((-6, 7, -5, 1, -2, -49, -44, 39), 0, 0.3501487317178585)
((-6, 7, -5, 1, -2, -49, -44, 39), 0, 0.35158729841962927)
((-6, 7, -5, 1, -2, -49, -44, 39), 0, 0.35284169665343657)
((-6, 7, -5, 1, -2, -49, -44, 39), 0, 0.35389938243694224)
((16, 13, 5, 0, 16, 29, 14, -5), 0, 0.35511500836170456)
((16, 13, 5, 0, 16, 29, 14, -5), 0, 0.3559047090679878)
((16, 13, 5, 0, 16, 29, 14, -5), 0, 0.3566904185071635)
((16, 13, 5, 0, 16, 29, 14, -5), 0, 0.35747897885141594)
((16, 13, 5, 0, 16, 29, 14, -5), 0, 0.35825100394622283)
((16, 13, 5, 0, 16, 29, 14, -5), 0, 0.3590606609880439)
((16, 13, 5, 0, 16, 29, 14, -5), 0, 0.3602221197163463)
((16, 13, 5, 0, 16, 29, 14, -5), 0, 0.36162305447110293)
((16, 13, 5, 0, 16, 29, 14, -5), 0, 0.3641056226120106)
((16, 13, 5, 0, 16, 29, 14, -5), 0, 0.365072649614073)
((16, 13, 5, 0, 16, 29, 14, -5), 0, 0.36588059611284796)
((16, 13, 5, 0, 16, 29, 14, -5), 0, 0.36673472727386763)
((16, 13, 5, 0, 16, 29, 14, -5), 0, 0.36797658152533685)
((16, 13, 5, 0, 16, 29, 14, -5), 0, 0.36959532542796364)
((-3, -18, -7, -2, 1, -1, 2, 0), 0, 0.3707220031143287)
((-3, -18, -7, -2, 1, -1, 2, 0), 0, 0.3714831947698436)
((-3, -18, -7, -2, 1, -1, 2, 0), 0, 0.3730460609329644)
((-3, -18, -7, -2, 1, -1, 2, 0), 0, 0.37381295439863294)
((-3, -18, -7, -2, 1, -1, 2, 0), 0, 0.3746169096303003)
((-3, -18, -7, -2, 1, -1, 2, 0), 0, 0.37536555730347715)
((-3, -18, -7, -2, 1, -1, 2, 0), 0, 0.37673057065426563)
((-4, -7, -3, 0, 26, 3, 10, -4), 0, 0.37798553906908827)
((0, -9, -2, -1, -2, 11, -8, -9), 0, 0.3792159897002501)
((0, -9, -2, -1, -2, 11, -8, -9), 0, 0.38031244779280077)
((0, -9, -2, -1, -2, 11, -8, -9), 0, 0.38105653401785466)
((0, -9, -2, -1, -2, 11, -8, -9), 0, 0.38227273012363233)
((0, -9, -2, -1, -2, 11, -8, -9), 0, 0.383086378432561)
((0, -9, -2, -1, -2, 11, -8, -9), 0, 0.38448617282528685)
((0, -9, -2, -1, -2, 11, -8, -9), 0, 0.386066714599884)
((0, -9, -2, -1, -2, 11, -8, -9), 0, 0.3870029518271166)
((0, -9, -2, -1, -2, 11, -8, -9), 0, 0.38792322398591883)
((0, -9, -2, -1, -2, 11, -8, -9), 0, 0.3887739340608463)
((0, -9, -2, -1, -2, 11, -8, -9), 0, 0.38954881006073)
((0, -9, -2, -1, -2, 11, -8, -9), 0, 0.390307150811168)
((0, 0, 0, -1, -18, -7, -26, -15), 0, 0.39219901142015556)
((0, 0, 0, -1, -18, -7, -26, -15), 0, 0.39315862606901814)
((0, 0, 0, -1, -18, -7, -26, -15), 0, 0.394236838369077)
((0, 0, 0, -1, -18, -7, -26, -15), 0, 0.39521583917246206)
((0, 0, 0, -1, -18, -7, -26, -15), 0, 0.3962011119670162)
((0, 0, 0, -1, -18, -7, -26, -15), 0, 0.3973791059447643)
((0, 0, 0, -1, -18, -7, -26, -15), 0, 0.3982748603199058)
((0, 0, 0, -1, -18, -7, -26, -15), 0, 0.39939298529104034)
((0, -3, -2, 0, -18, -6, 8, -8), 0, 0.40194967696394573)
((0, -3, -2, 0, -18, -6, 8, -8), 0, 0.4030022311183131)
((0, -3, -2, 0, -18, -6, 8, -8), 0, 0.4039014065795468)
((0, -3, -2, 0, -18, -6, 8, -8), 0, 0.40477207299001217)
((0, -3, -2, 0, -18, -6, 8, -8), 0, 0.4055526508000495)
((0, -3, -2, 0, -18, -6, 8, -8), 0, 0.4062733596034733)
((0, -3, -2, 0, -18, -6, 8, -8), 0, 0.40702257745766546)
((0, -3, -2, 0, -18, -6, 8, -8), 0, 0.40782368178425604)
((0, -3, -2, 0, -18, -6, 8, -8), 0, 0.4086510144375535)
((0, -3, -2, 0, -18, -6, 8, -8), 0, 0.4094561100312516)
((0, -3, -2, 0, -18, -6, 8, -8), 0, 0.4111763461546137)
((0, -3, -2, 0, -18, -6, 8, -8), 0, 0.4120817936070164)
((0, -3, -2, 0, -18, -6, 8, -8), 0, 0.4130459697040019)
((0, -3, -2, 0, -18, -6, 8, -8), 0, 0.4146755470459207)
((0, -3, -2, 0, -18, -6, 8, -8), 0, 0.4158392864982846)
((0, -3, -2, 0, -18, -6, 8, -8), 0, 0.41660389923989166)
((0, -3, -2, 0, -18, -6, 8, -8), 0, 0.41770833986665745)
((0, -3, -2, 0, -18, -6, 8, -8), 0, 0.4188133506744386)
((0, -3, -2, 0, -18, -6, 8, -8), 0, 0.4200939772349528)
((0, -3, -2, 0, -18, -6, 8, -8), 0, 0.42144359569832635)
((-7, -8, -2, -3, -12, 12, 26, -8), 0, 0.42247961460324807)
((-3, 0, -2, -3, -7, 17, -10, 8), 0, 0.4234061587532194)
((-3, 0, -2, -3, -7, 17, -10, 8), 0, 0.42430362367140695)
((-3, 0, -2, -3, -7, 17, -10, 8), 0, 0.4251167017993202)
((-3, 0, -2, -3, -7, 17, -10, 8), 0, 0.42597596458947823)
((-3, 0, -2, -3, -7, 17, -10, 8), 0, 0.4269977289690158)
((-3, 0, -2, -3, -7, 17, -10, 8), 0, 0.4278444477768357)
((-3, 0, -2, -3, -7, 17, -10, 8), 0, 0.42951735887592235)
((-3, 0, -2, -3, -7, 17, -10, 8), 0, 0.4308926354849874)
((-3, 0, -2, -3, -7, 17, -10, 8), 0, 0.4319343562000628)
((-3, 0, -2, -3, -7, 17, -10, 8), 0, 0.4330462091800284)
((-3, 0, -2, -3, -7, 17, -10, 8), 0, 0.4340246398023981)
((-3, 0, -2, -3, -7, 17, -10, 8), 0, 0.43549684718407555)
((-3, 0, -2, -3, -7, 17, -10, 8), 0, 0.43672273636711445)
((2, 4, 2, -1, 9, -9, -18, -3), 0, 0.440791548092773)
((2, 4, 2, -1, 9, -9, -18, -3), 0, 0.44153278341275004)
((2, 4, 2, -1, 9, -9, -18, -3), 0, 0.4422591940263275)
((2, 4, 2, -1, 9, -9, -18, -3), 0, 0.44299586789818163)
((2, 4, 2, -1, 9, -9, -18, -3), 0, 0.44440022373903043)
((0, -9, -3, -2, -6, 1, -4, -5), 0, 0.44535356639672397)
((-12, -10, 1, 4, 8, 31, -15, -12), 0, 0.44617462705885236)
((-12, -10, 1, 4, 8, 31, -15, -12), 0, 0.4470863465024241)
((-12, -10, 1, 4, 8, 31, -15, -12), 0, 0.44970632826803525)
((-12, -10, 1, 4, 8, 31, -15, -12), 0, 0.45151437226776386)
((-12, -10, 1, 4, 8, 31, -15, -12), 0, 0.4524990748813026)
((-12, -10, 1, 4, 8, 31, -15, -12), 0, 0.45344158409970414)
((-12, -10, 1, 4, 8, 31, -15, -12), 0, 0.45423641643512563)
((-12, -10, 1, 4, 8, 31, -15, -12), 0, 0.4550574770972541)
((-12, -10, 1, 4, 8, 31, -15, -12), 0, 0.45589621337085884)
((-12, -10, 1, 4, 8, 31, -15, -12), 0, 0.4566944667923726)
((-12, -10, 1, 4, 8, 31, -15, -12), 0, 0.4574682024302255)
((8, 15, -2, -1, -14, 28, -32, 33), 0, 0.45923576357786305)
((3, -14, 0, -3, -8, 9, 11, -53), 0, 0.4600585347830376)
((3, -14, 0, -3, -8, 9, 11, -53), 0, 0.4611019660411591)
((3, -14, 0, -3, -8, 9, 11, -53), 0, 0.46207925630149804)
((3, -14, 0, -3, -8, 9, 11, -53), 0, 0.4629048784117494)
((3, -14, 0, -3, -8, 9, 11, -53), 0, 0.46373506197012365)
((3, -14, 0, -3, -8, 9, 11, -53), 0, 0.4648280989765821)
((3, -14, 0, -3, -8, 9, 11, -53), 0, 0.4662814903847525)
((-5, 11, 0, -3, -2, -45, 10, 8), 0, 0.46892770047707044)
((3, -7, -3, -8, -7, 1, -20, -7), 0, 0.46981832322307365)
((3, -7, -3, -8, -7, 1, -20, -7), 0, 0.4706867089094775)
((3, -7, -3, -8, -7, 1, -20, -7), 0, 0.4715431207945586)
((3, -7, -3, -8, -7, 1, -20, -7), 0, 0.4724383049886848)
((3, -7, -3, -8, -7, 1, -20, -7), 0, 0.4735336227192047)
((3, -7, -3, -8, -7, 1, -20, -7), 0, 0.47456336963295737)
((3, -4, -4, -4, 17, 2, 14, -23), 0, 0.47558627437452566)
((3, -4, -4, -4, 17, 2, 14, -23), 0, 0.47639650159736213)
((3, -4, -4, -4, 17, 2, 14, -23), 0, 0.4783567839281937)
((3, -4, -4, -4, 17, 2, 14, -23), 0, 0.4791060017823858)
((3, -4, -4, -4, 17, 2, 14, -23), 0, 0.4799122377381147)
((3, -4, -4, -4, 17, 2, 14, -23), 0, 0.48091233523906834)
((3, -4, -4, -4, 17, 2, 14, -23), 0, 0.4822710765986878)
((3, -4, -4, -4, 17, 2, 14, -23), 0, 0.48465500342393697)
((3, -4, -4, -4, 17, 2, 14, -23), 0, 0.48607076288509315)
((3, -4, -4, -4, 17, 2, 14, -23), 0, 0.4869351573043894)
((3, -4, -4, -4, 17, 2, 14, -23), 0, 0.48812569526447563)
((3, -4, -4, -4, 17, 2, 14, -23), 0, 0.48921930245194944)
((2, -5, -3, -4, -4, -3, -25, -8), 0, 0.49034369941425304)
((2, -5, -3, -4, -4, -3, -25, -8), 0, 0.4910849347342301)
((2, -5, -3, -4, -4, -3, -25, -8), 0, 0.4918084944427307)
((2, -5, -3, -4, -4, -3, -25, -8), 0, 0.49256170356403045)
((2, -5, -3, -4, -4, -3, -25, -8), 0, 0.4933514042703137)
((2, -5, -3, -4, -4, -3, -25, -8), 0, 0.49412171882207445)
((2, -5, -3, -4, -4, -3, -25, -8), 0, 0.4951833958726877)
((2, -5, -3, -4, -4, -3, -25, -8), 0, 0.4962165638725326)
((2, -5, -3, -4, -4, -3, -25, -8), 0, 0.4973153026891447)
((0, 7, 0, -4, -6, -16, 1, -7), 0, 0.4983536023181279)
((0, 7, 0, -4, -6, -16, 1, -7), 0, 0.4993377347506513)
((0, 7, 0, -4, -6, -16, 1, -7), 0, 0.501479904825385)
((0, 7, 0, -4, -6, -16, 1, -7), 0, 0.5029458402158934)
((0, 7, 0, -4, -6, -16, 1, -7), 0, 0.5039237006572477)
((0, 7, 0, -4, -6, -16, 1, -7), 0, 0.5048137532222354)
((0, 7, 0, -4, -6, -16, 1, -7), 0, 0.5060681514560428)
((0, 7, 0, -4, -6, -16, 1, -7), 0, 0.5069656163742303)
((0, 7, 0, -4, -6, -16, 1, -7), 0, 0.508006196727275)
((0, 7, 0, -4, -6, -16, 1, -7), 0, 0.5088027396057426)
((0, 7, 0, -4, -6, -16, 1, -7), 0, 0.5096380547932552)
((0, 7, 0, -4, -6, -16, 1, -7), 0, 0.5103730181220633)
((0, 7, 0, -4, -6, -16, 1, -7), 0, 0.5115612753580879)
((-7, 5, -4, -3, -11, -69, 9, 2), 0, 0.512720453362329)
((-7, 5, -4, -3, -11, -69, 9, 2), 0, 0.5135586194549183)
((-7, 5, -4, -3, -11, -69, 9, 2), 0, 0.5152554781566504)
((-7, 5, -4, -3, -11, -69, 9, 2), 0, 0.5161489518077303)
((-7, 5, -4, -3, -11, -69, 9, 2), 0, 0.5192364820059424)
((-7, 5, -4, -3, -11, -69, 9, 2), 0, 0.5206967155862972)
((-7, 8, 1, 1, 5, 4, 18, -5), 0, 0.5217036552594352)
((-7, 8, 1, 1, 5, 4, 18, -5), 0, 0.5226444539347906)
((-7, 8, 1, 1, 5, 4, 18, -5), 0, 0.5241839426762814)
((-7, 8, 1, 1, 5, 4, 18, -5), 0, 0.5250688636121309)
((-7, 8, 1, 1, 5, 4, 18, -5), 0, 0.5258933453603516)
((-7, 8, 1, 1, 5, 4, 18, -5), 0, 0.5267925208215852)
((-7, 8, 1, 1, 5, 4, 18, -5), 0, 0.5276346781812822)
((-7, 8, 1, 1, 5, 4, 18, -5), 0, 0.528715741386418)
((-7, 8, 1, 1, 5, 4, 18, -5), 0, 0.5295293896953466)
((-7, 8, 1, 1, 5, 4, 18, -5), 0, 0.5303282132978757)
((-7, 8, 1, 1, 5, 4, 18, -5), 0, 0.5311943182602181)
((-7, 8, 1, 1, 5, 4, 18, -5), 0, 0.5319817382424398)
((-7, 8, 1, 1, 5, 4, 18, -5), 0, 0.5357574769261998)
((-7, 8, 1, 1, 5, 4, 18, -5), 0, 0.5377017941886011)
((-7, 8, 1, 1, 5, 4, 18, -5), 0, 0.5393165468241202)
((-7, 8, 1, 1, 5, 4, 18, -5), 0, 0.5408908166075485)
((-7, 8, 1, 1, 5, 4, 18, -5), 0, 0.5420978898170802)
((5, -3, -1, -3, 2, 6, -62, 12), 0, 0.5437930379757662)
((2, -1, -2, 0, -3, -12, 4, -14), 0, 0.5450651118210498)
((2, -1, -2, 0, -3, -12, 4, -14), 0, 0.545887312845209)
((2, -1, -2, 0, -3, -12, 4, -14), 0, 0.5465521439091269)
((2, -1, -2, 0, -3, -12, 4, -14), 0, 0.5474159681474078)
((2, -1, -2, 0, -3, -12, 4, -14), 0, 0.5484172060103921)
((2, -1, -2, 0, -3, -12, 4, -14), 0, 0.549517085189035)
((2, -1, -2, 0, -3, -12, 4, -14), 0, 0.5507110442352133)
((2, -1, -2, 0, -3, -12, 4, -14), 0, 0.5521000051886472)
((2, -1, -2, 0, -3, -12, 4, -14), 0, 0.5540671296916632)
((2, -1, -2, 0, -3, -12, 4, -14), 0, 0.5552616589188569)
((2, -1, -2, 0, -3, -12, 4, -14), 0, 0.5561967557840588)
((2, -1, -2, 0, -3, -12, 4, -14), 0, 0.5568496130466539)
((2, 4, -2, -1, -1, 20, -4, 32), 0, 0.5578326051171465)
((2, 4, -2, -1, -1, 20, -4, 32), 0, 0.5587403332936107)
((2, 4, -2, -1, -1, 20, -4, 32), 0, 0.5595990259027533)
((2, 4, -2, -1, -1, 20, -4, 32), 0, 0.5604537272447884)
((2, 4, -2, -1, -1, 20, -4, 32), 0, 0.5612457086751331)
((2, 4, -2, -1, -1, 20, -4, 32), 0, 0.56320656118698)
((2, 4, -2, -1, -1, 20, -4, 32), 0, 0.5644033711382352)
((-1, -6, -1, -1, -5, -5, 19, -9), 0, 0.5653857930277125)
((-5, 1, 0, 0, 4, 1, -17, 7), 0, 0.566191458802426)
((-5, 1, 0, 0, 4, 1, -17, 7), 0, 0.5675638845064143)
((-5, 1, 0, 0, 4, 1, -17, 7), 0, 0.5689659596232016)
((-5, 1, 0, 0, 4, 1, -17, 7), 0, 0.5700190839585844)
((-5, 1, 0, 0, 4, 1, -17, 7), 0, 0.5724155547661716)
((-5, 1, 0, 0, 4, 1, -17, 7), 0, 0.5732468786865766)
((-5, 1, 0, 0, 4, 1, -17, 7), 0, 0.5739789911103078)
((-5, 1, 0, 0, 4, 1, -17, 7), 0, 0.5748034728585284)
((-5, 1, 0, 0, 4, 1, -17, 7), 0, 0.5755555416177974)
((-5, 1, 0, 0, 4, 1, -17, 7), 0, 0.5763600670304801)
((-5, 1, 0, 0, 4, 1, -17, 7), 0, 0.5771794171495624)
((-5, 1, 0, 0, 4, 1, -17, 7), 0, 0.5780227148712902)
((-5, 1, 0, 0, 4, 1, -17, 7), 0, 0.5794669833832147)
((-6, -8, -5, -6, -36, -19, 45, -9), 0, 0.5805018619261056)
((-6, -8, -5, -6, -36, -19, 45, -9), 0, 0.5810954203631027)
((-6, -8, -5, -6, -36, -19, 45, -9), 0, 0.582293940857404)
((-6, -8, -5, -6, -36, -19, 45, -9), 0, 0.5830539921508882)
((-6, -8, -5, -6, -36, -19, 45, -9), 0, 0.5840974234090096)
((-6, -8, -5, -6, -36, -19, 45, -9), 0, 0.5853757692454623)
((-6, -8, -5, -6, -36, -19, 45, -9), 0, 0.5863251206360484)
((-6, -8, -5, -6, -36, -19, 45, -9), 0, 0.5874649124857668)
((7, 0, 0, 0, -12, 0, 7, 14), 0, 0.5887341354259736)
((7, 0, 0, 0, -12, 0, 7, 14), 0, 0.5895517750020098)
((7, 0, 0, 0, -12, 0, 7, 14), 0, 0.5911049480878695)
((7, 0, 0, 0, -12, 0, 7, 14), 0, 0.5918900873460298)
((7, 0, 0, 0, -12, 0, 7, 14), 0, 0.5926444368293602)
((7, 0, 0, 0, -12, 0, 7, 14), 0, 0.5936006303921306)
((7, 0, 0, 0, -12, 0, 7, 14), 0, 0.5946605968996977)
((-9, 5, -1, -3, 7, 8, -2, -11), 0, 0.5958482839547071)
((-9, 5, -1, -3, 7, 8, -2, -11), 0, 0.5967172398221263)
((-9, 5, -1, -3, 7, 8, -2, -11), 0, 0.597470448943426)
((-9, 5, -1, -3, 7, 8, -2, -11), 0, 0.598220807159649)
((-9, 5, -1, -3, 7, 8, -2, -11), 0, 0.5990002446076556)
((-9, 5, -1, -3, 7, 8, -2, -11), 0, 0.6012940828324769)
((-9, 5, -1, -3, 7, 8, -2, -11), 0, 0.6030348454723922)
((-9, 5, -1, -3, 7, 8, -2, -11), 0, 0.6041147683154972)
((-9, 5, -1, -3, 7, 8, -2, -11), 0, 0.6053360960504132)
((-9, 5, -1, -3, 7, 8, -2, -11), 0, 0.6062073326418939)
((-9, 5, -1, -3, 7, 8, -2, -11), 0, 0.6070129984166073)
((-9, 5, -1, -3, 7, 8, -2, -11), 0, 0.6078283572685821)
((-9, 5, -1, -3, 7, 8, -2, -11), 0, 0.6088717885267035)
((-1, -10, -9, -3, -4, -7, -31, -5), 0, 0.6101718012417402)
((-1, -10, -9, -3, -4, -7, -31, -5), 0, 0.6111080384689728)
((-1, -10, -9, -3, -4, -7, -31, -5), 0, 0.6119906786807607)
((-1, -10, -9, -3, -4, -7, -31, -5), 0, 0.613005600888114)
((-1, -10, -9, -3, -4, -7, -31, -5), 0, 0.6139087676164552)
((-1, -10, -9, -3, -4, -7, -31, -5), 0, 0.6147315388216297)
((-1, -10, -9, -3, -4, -7, -31, -5), 0, 0.6155200991658822)
((-1, -10, -9, -3, -4, -7, -31, -5), 0, 0.6168326558632569)
((7, 9, 2, 0, 3, -16, 12, 11), 0, 0.6194246987591151)
((7, 9, 2, 0, 3, -16, 12, 11), 0, 0.6204624282070829)
((7, 9, 2, 0, 3, -16, 12, 11), 0, 0.6214009461583769)
((7, 9, 2, 0, 3, -16, 12, 11), 0, 0.6225190711295114)
((7, 9, 2, 0, 3, -16, 12, 11), 0, 0.6234262291249603)
((7, 9, 2, 0, 3, -16, 12, 11), 0, 0.6246087845508314)
((7, 9, 2, 0, 3, -16, 12, 11), 0, 0.62559348716437)
((7, 9, 2, 0, 3, -16, 12, 11), 0, 0.6264356445240671)
((7, 9, 2, 0, 3, -16, 12, 11), 0, 0.6271586340515524)
((7, 9, 2, 0, 3, -16, 12, 11), 0, 0.6279352205944821)
((7, 9, 2, 0, 3, -16, 12, 11), 0, 0.6302039708546272)
((7, 9, 2, 0, 3, -16, 12, 11), 0, 0.6317468806822102)
((-3, -9, -2, -2, -12, -5, -6, -4), 0, 0.6328285140683613)
((1, -3, -1, -1, 8, -12, -64, -18), 0, 0.6338274712072842)
((1, -3, -1, -1, 8, -12, -64, -18), 0, 0.6350584920194614)
((1, -3, -1, -1, 8, -12, -64, -18), 0, 0.6359764834542022)
((1, -3, -1, -1, 8, -12, -64, -18), 0, 0.6368956152509737)
((1, -3, -1, -1, 8, -12, -64, -18), 0, 0.6377793958247925)
((1, -3, -1, -1, 8, -12, -64, -18), 0, 0.64078995158593)
((-1, -7, -2, -1, -2, -3, -18, 13), 0, 0.6454489006624933)
((-1, -7, -2, -1, -2, -3, -18, 13), 0, 0.6468954498984792)
((-1, -7, -2, -1, -2, -3, -18, 13), 0, 0.6479748025605689)
((-1, -7, -2, -1, -2, -3, -18, 13), 0, 0.64903305852509)
((-1, -7, -2, -1, -2, -3, -18, 13), 0, 0.649915698736878)
((-1, -7, -2, -1, -2, -3, -18, 13), 0, 0.6510714556550268)
((-1, -7, -2, -1, -2, -3, -18, 13), 0, 0.6522032649705302)
((-1, -7, -2, -1, -2, -3, -18, 13), 0, 0.6531600287143159)
((-1, -7, -2, -1, -2, -3, -18, 13), 0, 0.6544024531468006)
((-1, -2, -2, -3, -8, 4, -7, -2), 0, 0.6556311932349163)
((-1, -2, -2, -3, -8, 4, -7, -2), 0, 0.656864494771155)
((-1, -2, -2, -3, -8, 4, -7, -2), 0, 0.6582352099320972)
((-1, -2, -2, -3, -8, 4, -7, -2), 0, 0.6590203491902574)
((-1, -2, -2, -3, -8, 4, -7, -2), 0, 0.659770137225465)
((-1, -2, -2, -3, -8, 4, -7, -2), 0, 0.6605341797860567)
((-1, -2, -2, -3, -8, 4, -7, -2), 0, 0.6614858119007041)
((-1, -2, -2, -3, -8, 4, -7, -2), 0, 0.6622772231500335)
((-1, -2, -2, -3, -8, 4, -7, -2), 0, 0.6632499519622495)
((-1, -2, -2, -3, -8, 4, -7, -2), 0, 0.6644467619135047)
((-1, -2, -2, -3, -8, 4, -7, -2), 0, 0.6652655418515716)
((-1, -2, -2, -3, -8, 4, -7, -2), 0, 0.6660866025137)
((-1, -2, -2, -3, -8, 4, -7, -2), 0, 0.668004121268379)
((-1, -2, -2, -3, -8, 4, -7, -2), 0, 0.6696063299215602)
((1, 6, -3, -1, -3, -1, -23, 0), 0, 0.670671998239281)
((-5, 4, 1, 2, 27, 8, 5, -11), 0, 0.6714668305747026)
((-5, 4, 1, 2, 27, 8, 5, -11), 0, 0.6723791201992897)
((-5, 4, 1, 2, 27, 8, 5, -11), 0, 0.6733929020446121)
((-5, 4, 1, 2, 27, 8, 5, -11), 0, 0.6746370370201428)
((-5, 4, 1, 2, 27, 8, 5, -11), 0, 0.6754227464593184)
((-3, -3, -3, -2, -1, -7, -7, -5), 0, 0.6772832471124608)
((-3, -3, -3, -2, -1, -7, -7, -5), 0, 0.6782023789092323)
((-3, -3, -3, -2, -1, -7, -7, -5), 0, 0.678756594856169)
((-3, -3, -3, -2, -1, -7, -7, -5), 0, 0.6796135769222655)
((-3, -3, -3, -2, -1, -7, -7, -5), 0, 0.6807305615313693)
((-3, -3, -3, -2, -1, -7, -7, -5), 0, 0.6815795610632508)
((-3, -3, -3, -2, -1, -7, -7, -5), 0, 0.6824000515443638)
((-3, -3, -3, -2, -1, -7, -7, -5), 0, 0.6833533942020573)
((-3, -3, -3, -2, -1, -7, -7, -5), 0, 0.6852897289302435)
((-3, -3, -3, -2, -1, -7, -7, -5), 0, 0.6865230304664822)
((-3, -3, -3, -2, -1, -7, -7, -5), 0, 0.6873686089122714)
((-3, -3, -3, -2, -1, -7, -7, -5), 0, 0.68815887979957)
((-3, -3, -3, -2, -1, -7, -7, -5), 0, 0.6889645455742834)
((-3, -3, -3, -2, -1, -7, -7, -5), 0, 0.6899486780068068)
((-3, -3, -3, -2, -1, -7, -7, -5), 0, 0.6913895254326391)
((-2, -1, -3, 0, -6, -13, 2, -3), 0, 0.6927208981035209)
((1, -1, 0, -2, -3, -19, -22, -13), 0, 0.6935482307568184)
((1, -1, 0, -2, -3, -19, -22, -13), 0, 0.6943185453085791)
((1, -1, 0, -2, -3, -19, -22, -13), 0, 0.6951282023504002)
((1, -1, 0, -2, -3, -19, -22, -13), 0, 0.6963626442486697)
((1, -1, 0, -2, -3, -19, -22, -13), 0, 0.6972601091668572)
((1, -1, 0, -2, -3, -19, -22, -13), 0, 0.6986570526545062)
((1, -1, 0, -2, -3, -19, -22, -13), 0, 0.6997546511090876)
((2, -2, -1, 0, 11, -5, 22, 40), 0, 0.7016453713560444)
((2, -2, -1, 0, 11, -5, 22, 40), 0, 0.7024949410689412)
((2, -2, -1, 0, 11, -5, 22, 40), 0, 0.7032253429496262)
((2, -2, -1, 0, 11, -5, 22, 40), 0, 0.7039557448303113)
((2, -2, -1, 0, 11, -5, 22, 40), 0, 0.7052688717087013)
((2, -2, -1, 0, 11, -5, 22, 40), 0, 0.7062866448211313)
((2, -2, -1, 0, 11, -5, 22, 40), 0, 0.707297575761377)
((2, -2, -1, 0, 11, -5, 22, 40), 0, 0.7083518404587904)
((2, -2, -1, 0, 11, -5, 22, 40), 0, 0.7094192193195574)
((2, -2, -1, 0, 11, -5, 22, 40), 0, 0.7102693592134695)
((2, -2, -1, 0, 11, -5, 22, 40), 0, 0.7110613406438142)
((2, -2, -1, 0, 11, -5, 22, 40), 0, 0.7118715678666506)
((2, -2, -1, 0, 11, -5, 22, 40), 0, 0.7126464438665343)
((-10, -6, -3, -1, -10, 10, -26, -32), 0, 0.7148005877425906)
((-2, -1, -3, -2, -26, -39, 77, -4), 0, 0.7160110820382146)
((-2, -1, -3, -2, -26, -39, 77, -4), 0, 0.7171810934817476)
((-2, -1, -3, -2, -26, -39, 77, -4), 0, 0.7183818947001105)
((-2, -1, -3, -2, -26, -39, 77, -4), 0, 0.7191231300200874)
((-2, -1, -3, -2, -26, -39, 77, -4), 0, 0.7199498924923695)
((-2, -1, -3, -2, -26, -39, 77, -4), 0, 0.7209824903111991)
((-2, -1, -3, -2, -26, -39, 77, -4), 0, 0.7220664044214117)
((-2, -1, -3, -2, -26, -39, 77, -4), 0, 0.7229752729599066)
((-2, -1, -3, -2, -26, -39, 77, -4), 0, 0.7247143250567758)
((-2, -1, -3, -2, -26, -39, 77, -4), 0, 0.7259510476791067)
((-2, -1, -3, -2, -26, -39, 77, -4), 0, 0.7269762331447365)
((-2, -1, -3, -2, -26, -39, 77, -4), 0, 0.7277647934889889)
((-2, -1, -3, -2, -26, -39, 77, -4), 0, 0.729082481815502)
((-1, 1, 2, 1, -13, 58, 60, 36), 0, 0.7302262649323281)
((-1, 1, 2, 1, -13, 58, 60, 36), 0, 0.7312742576385726)
((-1, 1, 2, 1, -13, 58, 60, 36), 0, 0.7321084324640543)
((-1, 1, 2, 1, -13, 58, 60, 36), 0, 0.733040108243164)
((-1, 1, 2, 1, -13, 58, 60, 36), 0, 0.7351760063267285)
((-1, 1, 2, 1, -13, 58, 60, 36), 0, 0.7362918505738016)
((-1, 1, 2, 1, -13, 58, 60, 36), 0, 0.7372765531873404)
((9, -5, -9, -5, -14, 11, -23, 13), 0, 0.7382162115006651)
((9, -5, -9, -5, -14, 11, -23, 13), 0, 0.7389996402157794)
((9, -5, -9, -5, -14, 11, -23, 13), 0, 0.7399740795710414)
((9, -5, -9, -5, -14, 11, -23, 13), 0, 0.7451712795261112)
((9, -5, -9, -5, -14, 11, -23, 13), 0, 0.7464045810623499)
((9, -5, -9, -5, -14, 11, -23, 13), 0, 0.747424064717826)
((9, -5, -9, -5, -14, 11, -23, 13), 0, 0.7502641363553687)
((9, -5, -9, -5, -14, 11, -23, 13), 0, 0.7532034194895854)
((9, -5, -9, -5, -14, 11, -23, 13), 0, 0.7547919437983976)
((-2, -3, -2, -1, -3, -15, 12, -13), 0, 0.755776076230921)
((-2, -3, -2, -1, -3, -15, 12, -13), 0, 0.7566313477539715)
((-2, -3, -2, -1, -3, -15, 12, -13), 0, 0.7574803472858529)
((-2, -3, -2, -1, -3, -15, 12, -13), 0, 0.7586127267823716)
((-2, -3, -2, -1, -3, -15, 12, -13), 0, 0.7601054606806023)
((-2, -2, 0, -1, 4, 2, -22, -15), 0, 0.7624027199915157)
((-2, -2, 0, -1, 4, 2, -22, -15), 0, 0.7637164170509212)
((-2, -2, 0, -1, 4, 2, -22, -15), 0, 0.7648060329712874)
((-2, -2, 0, -1, 4, 2, -22, -15), 0, 0.7660461766797105)
((-2, -2, 0, -1, 4, 2, -22, -15), 0, 0.7685618153195095)
((-2, -2, 0, -1, 4, 2, -22, -15), 0, 0.7700112154605723)
((-2, -2, 0, -1, 4, 2, -22, -15), 0, 0.7709930671690342)
((-2, -2, 0, -1, 4, 2, -22, -15), 0, 0.7724715465418807)
((-2, -2, 0, -1, 4, 2, -22, -15), 0, 0.7734801967580648)
((-2, -2, 0, -1, 4, 2, -22, -15), 0, 0.7747739374819324)
((-3, 0, 1, 0, 20, 8, -10, 9), 0, 0.7759074573404818)
((-3, 0, 1, 0, 20, 8, -10, 9), 0, 0.7773739629120057)
((-3, 0, 1, 0, 20, 8, -10, 9), 0, 0.7791278397152744)
((-3, 0, 1, 0, 20, 8, -10, 9), 0, 0.7803309216576987)
((-3, 0, 1, 0, 20, 8, -10, 9), 0, 0.7819929993174933)
((-3, 0, 1, 0, 20, 8, -10, 9), 0, 0.7829377892599564)
((-3, 0, 1, 0, 20, 8, -10, 9), 0, 0.7842241176306242)
((-3, 0, 1, 0, 20, 8, -10, 9), 0, 0.7853696112904964)
((-3, 0, 1, 0, 20, 8, -10, 9), 0, 0.7861798385133328)
((-3, 0, 1, 0, 20, 8, -10, 9), 0, 0.7870790139745665)
((-3, 0, 1, 0, 20, 8, -10, 9), 0, 0.7878755568530341)
((-3, 0, 1, 0, 20, 8, -10, 9), 0, 0.7891202620095802)
((-4, 1, 0, 0, 3, -4, -16, -9), 0, 0.7905730832367351)
((-4, 1, 0, 0, 3, -4, -16, -9), 0, 0.791593707254242)
((-4, 1, 0, 0, 3, -4, -16, -9), 0, 0.7926570948479014)
((-4, 1, 0, 0, 3, -4, -16, -9), 0, 0.798649697319408)
((-4, -1, -2, -3, -2, 7, -1, -22), 0, 0.8037722035614646)
((-4, -1, -2, -3, -2, 7, -1, -22), 0, 0.8051320852831149)
((-4, -1, -2, -3, -2, 7, -1, -22), 0, 0.8061937623337281)
((-4, -1, -2, -3, -2, 7, -1, -22), 0, 0.8071299995609607)
((-4, -1, -2, -3, -2, 7, -1, -22), 0, 0.8079841307219803)
((-4, -1, -2, -3, -2, 7, -1, -22), 0, 0.8090178689028406)
((-4, -1, -2, -3, -2, 7, -1, -22), 0, 0.8104912166465488)
((-4, -1, -2, -3, -2, 7, -1, -22), 0, 0.8120403984653007)
((-1, 0, -1, -2, -2, -4, -14, 0), 0, 0.8149220933169653)
((-1, 0, -1, -2, -2, -4, -14, 0), 0, 0.8168743931135818)
((-1, 0, -1, -2, -2, -4, -14, 0), 0, 0.821236277881139)
((-1, 0, -1, -2, -2, -4, -14, 0), 0, 0.8228886624636723)
((1, -1, 1, -1, 3, 7, 6, -10), 0, 0.8246128898541419)
((-4, -4, -1, 0, -10, -7, -18, -7), 0, 0.8266467255359559)
((-4, -4, -1, 0, -10, -7, -18, -7), 0, 0.8597149437031775)
((3, 0, 0, 3, 25, 6, 8, 5), 0, 0.8613479421311884)
((-3, -1, -1, -1, -5, -2, -11, -5), 0, 0.8628771676144026)
((-3, -1, -1, -1, -5, -2, -11, -5), 0, 0.8653295161614958)
((-1, -1, -2, -5, -20, -7, -1, -6), 0, 0.8691297726289166)
((0, 0, 0, -1, 6, 4, -7, -4), 0, 0.870539830279919)
((0, 0, 0, -1, 6, 4, -7, -4), 0, 0.8742961828091564)
((0, 0, 0, -1, 6, 4, -7, -4), 0, 0.8757387407780348)
((0, 0, 0, -1, 6, 4, -7, -4), 0, 0.8771613424113753)
((0, 0, 0, -1, 6, 4, -7, -4), 0, 0.8780588073295629)
((0, 0, 0, -1, 6, 4, -7, -4), 0, 0.8793280302697697)
((-2, -1, 0, 1, -13, -3, -10, -4), 0, 0.8804678221194883)
((-2, -1, 0, 1, -13, -3, -10, -4), 0, 0.8819582752936574)
((-2, -1, 0, 1, -13, -3, -10, -4), 0, 0.8841186911608828)
((-2, -1, 0, 1, -13, -3, -10, -4), 0, 0.885369668308598)
((-2, -1, 0, 1, -13, -3, -10, -4), 0, 0.8869513504452259)
((-1, -2, 1, 2, -2, -2, -3, -1), 0, 0.8879759657298403)
((-1, -1, -1, -2, -6, -2, 3, -2), 0, 0.8890422042285765)
((-1, -1, -1, -2, -6, -2, 3, -2), 0, 0.8900023890584544)
((-1, -1, -1, -2, -6, -2, 3, -2), 0, 0.8908314322547979)
((-1, -1, -1, -2, -6, -2, 3, -2), 0, 0.8917117917425245)
((-1, -1, -1, -2, -6, -2, 3, -2), 0, 0.8925077644399768)
((-1, -1, -1, -2, -6, -2, 3, -2), 0, 0.8933784308504421)
((-1, -1, -1, -2, -6, -2, 3, -2), 0, 0.8943066855434595)
((-1, -1, -1, -2, -6, -2, 3, -2), 0, 0.8956608654549559)
((-1, -1, -1, -2, -6, -2, 3, -2), 0, 0.8966324539051412)
((-1, -1, -1, -2, -6, -2, 3, -2), 0, 0.8975139537548986)
((-1, -1, -1, -2, -6, -2, 3, -2), 0, 0.8986503245185249)
((-1, -1, -1, -2, -6, -2, 3, -2), 0, 0.8997946778163664)
((-1, -1, -1, -2, -6, -2, 3, -2), 0, 0.9023844399881631)
((3, 0, 5, 17, 13, 0, 15, 9), 0, 0.9036451102131393)
((-1, -1, 1, 3, -3, 3, -7, -5), 0, 0.9058488598375326)
((-1, -1, 1, 3, -3, 3, -7, -5), 0, 0.907139179475308)
((-1, -1, 1, 3, -3, 3, -7, -5), 0, 0.9080526094619259)
((-1, -1, 1, 3, -3, 3, -7, -5), 0, 0.9088588454176547)
((-1, -1, 1, 3, -3, 3, -7, -5), 0, 0.9097146871217205)
((-1, -1, 1, 3, -3, 3, -7, -5), 0, 0.9105454408611102)
((-1, -1, 1, 3, -3, 3, -7, -5), 0, 0.9113448346446547)
((-1, -1, 1, 3, -3, 3, -7, -5), 0, 0.9121157193774307)
((-1, -1, 1, 3, -3, 3, -7, -5), 0, 0.9128535336113156)
((-1, -1, 1, 3, -3, 3, -7, -5), 0, 0.9136306903352608)
((-1, -1, 1, 3, -3, 3, -7, -5), 0, 0.9159935204629414)
((-1, -1, 1, 3, -3, 3, -7, -5), 0, 0.9183785876502213)
((-1, -1, 1, 3, -3, 3, -7, -5), 0, 0.9202305355881332)
((-1, -1, 1, 3, -3, 3, -7, -5), 0, 0.9211411146696742)
((-1, -1, 1, 3, -3, 3, -7, -5), 0, 0.9219678771419563)
((-1, -1, 1, 3, -3, 3, -7, -5), 0, 0.9227672709255007)
((-1, -1, 1, 3, -3, 3, -7, -5), 0, 0.9241066261305977)
((0, -1, -2, 2, 5, -1, 1, 0), 0, 0.9255098416094157)
((-1, -1, -3, -4, -24, -10, -5, -4), 0, 0.9263075248499141)
((-1, -1, -3, -4, -24, -10, -5, -4), 0, 0.9271428400374266)
((-1, -1, -3, -4, -24, -10, -5, -4), 0, 0.9279251283905101)
((-1, -1, -3, -4, -24, -10, -5, -4), 0, 0.9287689962932533)
((-1, -1, -3, -4, -24, -10, -5, -4), 0, 0.9296738735646406)
((-1, -1, -3, -4, -24, -10, -5, -4), 0, 0.9303911612819722)
((-1, -1, -3, -4, -24, -10, -5, -4), 0, 0.931400951860187)
((-2, -2, -5, -11, -9, -1, -2, -2), 0, 0.9333994363190482)
((-3, -1, -2, -2, 0, 0, -3, 0), 0, 0.9355016937227062)
((-3, -1, -2, -2, 0, 0, -3, 0), 0, 0.9370035505171826)
((-3, -1, -2, -2, 0, 0, -3, 0), 0, 0.9382282993381909)
((-3, -1, -2, -2, 0, 0, -3, 0), 0, 0.9393749333600938)
((-3, -1, -2, -2, 0, 0, -3, 0), 0, 0.9403299865608334)
((-3, -1, -2, -2, 0, 0, -3, 0), 0, 0.9412536798057279)
((-3, -1, -2, -2, 0, 0, -3, 0), 0, 0.9420285558056116)
((-3, -1, -2, -2, 0, 0, -3, 0), 0, 0.942819967054941)
((-3, -1, -2, -2, 0, 0, -3, 0), 0, 0.9443680085116622)
((-3, -1, -2, -2, 0, 0, -3, 0), 0, 0.9455163530766112)
((-3, -1, -2, -2, 0, 0, -3, 0), 0, 0.9475433465862407)
((-3, -1, -2, -2, 0, 0, -3, 0), 0, 0.948356424714154)
((-3, -1, -2, -2, 0, 0, -3, 0), 0, 0.9522633050314483)
((-3, -1, -2, -2, 0, 0, -3, 0), 0, 0.9540405592563471)
((-3, -1, -2, -2, 0, 0, -3, 0), 0, 0.955480836501164)
((-1, 0, 0, 1, 25, 7, 2, -1), 0, 0.9563948366687972)
((-1, 0, 0, 1, 25, 7, 2, -1), 0, 0.9572649328982472)
((-1, 0, 0, 1, 25, 7, 2, -1), 0, 0.9582872674588001)
((-1, 0, 0, 1, 25, 7, 2, -1), 0, 0.9591550829641886)
((-1, 0, 0, 1, 25, 7, 2, -1), 0, 0.9599322396881338)
((-1, 0, 0, 1, 25, 7, 2, -1), 0, 0.9608553627520129)
((-1, 0, 0, 1, 25, 7, 2, -1), 0, 0.9620099793081309)
((-1, 0, 0, 1, 25, 7, 2, -1), 0, 0.9634656514403628)
((-1, 0, 0, 1, 25, 7, 2, -1), 0, 0.9642713172150763)
((-1, 0, 0, 1, 25, 7, 2, -1), 0, 0.9651539574268643)
((-1, 0, 0, 1, 25, 7, 2, -1), 0, 0.9662863369233831)
((-1, 0, 0, 1, 25, 7, 2, -1), 0, 0.9693601827772262)
((1, 0, -1, -2, 0, -8, -1, -1), 0, 0.970835811244996)
((0, 3, 2, 6, -10, 6, -2, 1), 0, 0.9723724490814099)
((0, 3, 2, 6, -10, 6, -2, 1), 0, 0.973245966396952)
((0, 3, 2, 6, -10, 6, -2, 1), 0, 0.9740544830767424)
((0, 3, 2, 6, -10, 6, -2, 1), 0, 0.9749331320214228)
((0, 3, 2, 6, -10, 6, -2, 1), 0, 0.9760655115179416)
((0, 3, 2, 6, -10, 6, -2, 1), 0, 0.977226970246244)
((-2, -6, -4, -5, -19, 19, -2, -2), 0, 0.9781768918178454)
((-2, -6, -4, -5, -19, 19, -2, -2), 0, 0.979001373566066)
((-2, -6, -4, -5, -19, 19, -2, -2), 0, 0.9798076095217949)
((-2, -6, -4, -5, -19, 19, -2, -2), 0, 0.9813949934685765)
((-2, -6, -4, -5, -19, 19, -2, -2), 0, 0.9822827653095028)
((-2, -6, -4, -5, -19, 19, -2, -2), 0, 0.9847801581568101)
((-3, -5, -5, -8, 21, 1, 1, -1), 0, 0.9860419687438171)
((-1, -4, 1, -3, -14, 0, 2, -2), 0, 0.9874069820946055)
((-1, -4, 1, -3, -14, 0, 2, -2), 0, 0.9882286129377493)
((-1, -4, 1, -3, -14, 0, 2, -2), 0, 0.9890205943680941)
((-1, -4, 1, -3, -14, 0, 2, -2), 0, 0.9905361355069394)
((-1, -4, 1, -3, -14, 0, 2, -2), 0, 0.9912545635863017)
((-1, -4, 1, -3, -14, 0, 2, -2), 0, 0.9925876468002297)
((-1, -4, 1, -3, -14, 0, 2, -2), 0, 0.9935797617669682)
((0, -1, -4, -3, -21, -15, -1, -2), 0, 0.9944795074092172)
((0, -1, -4, -3, -21, -15, -1, -2), 0, 0.9951996460316257)
((0, -1, -4, -3, -21, -15, -1, -2), 0, 0.9960275488659385)
((0, -1, -4, -3, -21, -15, -1, -2), 0, 0.9968839607510196)
((0, -1, -4, -3, -21, -15, -1, -2), 0, 0.9976514243977035)
((0, -1, -4, -3, -21, -15, -1, -2), 0, 0.9984160371393106)
((0, -1, -4, -3, -21, -15, -1, -2), 0, 1.0007914112493292)
((-5, -6, -5, -2, -5, -11, -5, -2), 0, 1.0026439293682565)
((2, 3, 6, -17, 44, 12, 3, 0), 0, 1.004681756317178)
((2, 3, 6, -17, 44, 12, 3, 0), 0, 1.0064692738003533)
((2, 3, 6, -17, 44, 12, 3, 0), 0, 1.0077749883255438)
((2, 3, 6, -17, 44, 12, 3, 0), 0, 1.0094034253054318)
((2, 3, 6, -17, 44, 12, 3, 0), 0, 1.0104656725370604)
((2, 3, 6, -17, 44, 12, 3, 0), 0, 1.011504542347059)
((2, 3, 6, -17, 44, 12, 3, 0), 0, 1.012413981066569)
((2, 3, 6, -17, 44, 12, 3, 0), 0, 1.0133228496050641)
((2, 3, 6, -17, 44, 12, 3, 0), 0, 1.0145561511413028)
((-4, -3, -2, 3, 46, 3, -1, 1), 0, 1.0154308088188757)
((-4, -3, -2, 3, 46, 3, -1, 1), 0, 1.0170335876530723)
((-4, -3, -2, 3, 46, 3, -1, 1), 0, 1.018773780111972)
((-4, -3, -2, 3, 46, 3, -1, 1), 0, 1.0198189219131397)
((-4, -3, -2, 3, 46, 3, -1, 1), 0, 1.021022003855564)
((-4, -3, -2, 3, 46, 3, -1, 1), 0, 1.022381315396199)
((-3, -2, -4, 28, 6, -11, -4, -3), 0, 1.0234965894622565)
((-3, -2, -4, 28, 6, -11, -4, -3), 0, 1.024280588358386)
((-3, -2, -4, 28, 6, -11, -4, -3), 0, 1.0250691487026387)
((-3, -2, -4, 28, 6, -11, -4, -3), 0, 1.025843454521507)
((-3, -2, -4, 28, 6, -11, -4, -3), 0, 1.0267010067686189)
((-3, -2, -4, 28, 6, -11, -4, -3), 0, 1.0288032641722769)
((-3, -2, -4, 28, 6, -11, -4, -3), 0, 1.029737790856463)
((-3, -2, -4, 28, 6, -11, -4, -3), 0, 1.0306113081720054)
((-3, -2, -4, 28, 6, -11, -4, -3), 0, 1.031378201637674)
((-3, -2, -4, 28, 6, -11, -4, -3), 0, 1.0321924201276178)
((-3, -2, -4, 28, 6, -11, -4, -3), 0, 1.0335232226174844)
((-3, -2, -4, 28, 6, -11, -4, -3), 0, 1.034983456197839)
((-3, -2, -4, 28, 6, -11, -4, -3), 0, 1.0362281613543851)
((0, -6, -7, -15, -59, -9, -2, -2), 0, 1.0389028804974716)
((0, -6, -7, -15, -59, -9, -2, -2), 0, 1.0401162256981724)
((0, -6, -7, -15, -59, -9, -2, -2), 0, 1.0409418478084238)
((0, -6, -7, -15, -59, -9, -2, -2), 0, 1.0418313301923963)
((0, -6, -7, -15, -59, -9, -2, -2), 0, 1.042633004700002)
((0, -6, -7, -15, -59, -9, -2, -2), 0, 1.0435675313841886)
((0, -6, -7, -15, -59, -9, -2, -2), 0, 1.044593857211849)
((-2, -5, -2, -10, 1, -15, -4, -2), 0, 1.0456429902801243)
((-2, -5, -2, -10, 1, -15, -4, -2), 0, 1.0464554982270222)
((-2, -5, -2, -10, 1, -15, -4, -2), 0, 1.0474755520635135)
((-2, -5, -2, -10, 1, -15, -4, -2), 0, 1.052953281078144)
((-2, -5, -2, -10, 1, -15, -4, -2), 0, 1.0544026812192067)
((-2, -5, -2, -10, 1, -15, -4, -2), 0, 1.0558555024463616)
((-2, -5, -2, -10, 1, -15, -4, -2), 0, 1.0570454702254324)
((-2, -5, -2, -10, 1, -15, -4, -2), 0, 1.0578408727418693)
((-2, -5, -2, -10, 1, -15, -4, -2), 0, 1.0588438211478999)
((-2, -5, -2, -10, 1, -15, -4, -2), 0, 1.059781198737163)
((-2, -5, -2, -10, 1, -15, -4, -2), 0, 1.060507039169725)
((-2, -5, -2, -10, 1, -15, -4, -2), 0, 1.061324108564746)
((-2, -5, -2, -10, 1, -15, -4, -2), 0, 1.0628139915578998)
((-2, -5, -2, -10, 1, -15, -4, -2), 0, 1.0632427676814558)
((-2, -5, -2, -10, 1, -15, -4, -2), 0, 1.0640609774385075)
((-2, -5, -2, -10, 1, -15, -4, -2), 0, 1.0648136163787918)
((-2, -5, -2, -10, 1, -15, -4, -2), 0, 1.0655462989835383)
((-2, -5, -2, -10, 1, -15, -4, -2), 0, 1.0672494296764394)
((-2, 0, 4, 0, -3, 5, 2, 1), 0, 1.0687301897733474)
((-2, -10, -9, 2, -39, -8, -3, -4), 0, 1.0696778306208872)
((-2, -10, -9, 2, -39, -8, -3, -4), 0, 1.0704749436803702)
((-2, -10, -9, 2, -39, -8, -3, -4), 0, 1.0714248652519716)
((-2, -10, -9, 2, -39, -8, -3, -4), 0, 1.0731884351325016)
((-2, -10, -9, 2, -39, -8, -3, -4), 0, 1.075095690628904)
((-2, -10, -9, 2, -39, -8, -3, -4), 0, 1.076079252880412)
((-2, -10, -9, 2, -39, -8, -3, -4), 0, 1.0768147863902353)
((-2, -10, -9, 2, -39, -8, -3, -4), 0, 1.077651812120794)
((-2, -10, -9, 2, -39, -8, -3, -4), 0, 1.078420986310524)
((-2, -10, -9, 2, -39, -8, -3, -4), 0, 1.0793207319527731)
((-2, -10, -9, 2, -39, -8, -3, -4), 0, 1.080190828182223)
((-2, -10, -9, 2, -39, -8, -3, -4), 0, 1.0813517167295101)
((-2, -2, -2, -12, -7, -6, -3, -2), 0, 1.0828706789544478)
((-2, -2, -2, -12, -7, -6, -3, -2), 0, 1.0844956948482434)
((-2, -2, -2, -12, -7, -6, -3, -2), 0, 1.0852705708481272)
((-2, -2, -2, -12, -7, -6, -3, -2), 0, 1.0861041754925935)
((-2, -2, -2, -12, -7, -6, -3, -2), 0, 1.0869543153865058)
((-2, -2, -2, -12, -7, -6, -3, -2), 0, 1.087876298088354)
((-2, -2, -2, -12, -7, -6, -3, -2), 0, 1.0893753039777538)
((1, 7, 8, 9, 2, 0, 1, 0), 0, 1.0918630037477999)
((1, 7, 8, 9, 2, 0, 1, 0), 0, 1.0926584062642366)
((1, 7, 8, 9, 2, 0, 1, 0), 0, 1.0934463964274739)
((1, 7, 8, 9, 2, 0, 1, 0), 0, 1.0941762281271434)
((1, 7, 8, 9, 2, 0, 1, 0), 0, 1.0949225950762589)
((1, 7, 8, 9, 2, 0, 1, 0), 0, 1.095774445513217)
((1, 7, 8, 9, 2, 0, 1, 0), 0, 1.096911956638874)
((1, 7, 8, 9, 2, 0, 1, 0), 0, 1.0978698607446906)
((1, 7, 8, 9, 2, 0, 1, 0), 0, 1.0987353955260177)
((1, 7, 8, 9, 2, 0, 1, 0), 0, 1.1000183028105932)
((1, 7, 8, 9, 2, 0, 1, 0), 0, 1.1020555595784993)
((1, 7, 8, 9, 2, 0, 1, 0), 0, 1.102850391913921)
((1, 7, 8, 9, 2, 0, 1, 0), 0, 1.1040506229512683)
((-3, -6, -8, -6, 2, -8, -4, -3), 0, 1.1051904148009868)
((-1, -3, -1, 3, -1, 4, 0, -1), 0, 1.1063769614939656)
((-1, -3, -1, 3, -1, 4, 0, -1), 0, 1.1074865337498696)
((-1, -3, -1, 3, -1, 4, 0, -1), 0, 1.1085185613876838)
((-1, -3, -1, 3, -1, 4, 0, -1), 0, 1.1093310693345817)
((-1, -3, -1, 3, -1, 4, 0, -1), 0, 1.1117115750737387)
((-1, -3, -1, 3, -1, 4, 0, -1), 0, 1.1131672472059704)
((-1, 0, 0, 4, -13, -3, 2, 3), 0, 1.1143230041241192)
((-2, 5, 5, -2, 5, 7, 0, -1), 0, 1.1152546799032288)
((-2, 5, 5, -2, 5, 7, 0, -1), 0, 1.116193197854523)
((-2, 5, 5, -2, 5, 7, 0, -1), 0, 1.1179077321677313)
((-2, 5, 5, -2, 5, 7, 0, -1), 0, 1.1190435327503423)
((-2, -7, -10, -5, 14, 1, 0, -2), 0, 1.12011205197314)
((0, -2, -2, 11, 13, -3, -2, -3), 0, 1.1217119799022595)
((0, -2, -2, 11, 13, -3, -2, -3), 0, 1.122550145994849)
((0, -2, -2, 11, 13, -3, -2, -3), 0, 1.1235086202816809)
((0, -2, -2, 11, 13, -3, -2, -3), 0, 1.1247556061622883)
((0, -2, -2, 11, 13, -3, -2, -3), 0, 1.1257859232570564)
((0, -2, -2, 11, 13, -3, -2, -3), 0, 1.126565360705063)
((0, -2, -2, 11, 13, -3, -2, -3), 0, 1.1273316839897163)
((0, -2, -2, 11, 13, -3, -2, -3), 0, 1.1281647184531673)
((0, -2, -2, 11, 13, -3, -2, -3), 0, 1.1289356031859434)
((0, -2, -2, 11, 13, -3, -2, -3), 0, 1.1305936895786306)
((0, -2, -2, 11, 13, -3, -2, -3), 0, 1.1314637858080805)
((0, -2, -2, 11, 13, -3, -2, -3), 0, 1.1323150660640233)
((0, -2, -2, 11, 13, -3, -2, -3), 0, 1.1344486834235266)
((0, -2, -2, 11, 13, -3, -2, -3), 0, 1.13540202608122)
((0, -2, -2, 11, 13, -3, -2, -3), 0, 1.1362208060192869)
((0, -2, -2, 11, 13, -3, -2, -3), 0, 1.137100595325998)
((0, -2, -2, 11, 13, -3, -2, -3), 0, 1.1379421825046798)
((0, -2, -2, 11, 13, -3, -2, -3), 0, 1.139592856544167)
((0, -2, -2, 11, 13, -3, -2, -3), 0, 1.140641419431427)
((0, -2, -2, 11, 13, -3, -2, -3), 0, 1.142252750980854)
((0, -2, -2, 11, 13, -3, -2, -3), 0, 1.143677633338256)
((0, -2, -2, 11, 13, -3, -2, -3), 0, 1.1444707551306312)
((0, -2, -2, 11, 13, -3, -2, -3), 0, 1.1452536136647302)
((0, -2, -2, 11, 13, -3, -2, -3), 0, 1.1459190149096634)
((0, -2, -2, 11, 13, -3, -2, -3), 0, 1.1467788478808367)
((0, -2, -2, 11, 13, -3, -2, -3), 0, 1.1476398212140408)
((0, -2, -2, 11, 13, -3, -2, -3), 0, 1.1489535182734463)
((0, 3, 2, -6, -39, 2, 2, 0), 0, 1.1511652504320546)
((2, 0, 0, 0, -22, -5, -1, -1), 0, 1.152281664860143)
((2, 0, 0, 0, -22, -5, -1, -1), 0, 1.1532053581050377)
((2, 0, 0, 0, -22, -5, -1, -1), 0, 1.1543747993675553)
((2, 0, 0, 0, -22, -5, -1, -1), 0, 1.1559382357116914)
((-1, 0, 3, 6, -5, -2, -3, -3), 0, 1.1578460613891093)
((0, -1, -7, -10, 17, -1, -1, 0), 0, 1.1589704583514129)
((0, -1, -7, -10, 17, -1, -1, 0), 0, 1.1601803824660215)
((0, -1, -7, -10, 17, -1, -1, 0), 0, 1.1609906096888578)
((0, -1, -7, -10, 17, -1, -1, 0), 0, 1.1617877227483409)
((0, -1, -7, -10, 17, -1, -1, 0), 0, 1.1625266773442564)
((0, -1, -7, -10, 17, -1, -1, 0), 0, 1.1633357642050621)
((0, -1, -7, -10, 17, -1, -1, 0), 0, 1.1644903807611802)
((0, -1, -7, -10, 17, -1, -1, 0), 0, 1.1652350371672495)
((0, -1, -7, -10, 17, -1, -1, 0), 0, 1.166405618791798)
((0, -1, -7, -10, 17, -1, -1, 0), 0, 1.1681703290343586)
((0, -1, -7, -10, 17, -1, -1, 0), 0, 1.1691014346324529)
((0, -1, -7, -10, 17, -1, -1, 0), 0, 1.1700160049811013)
((0, -1, -7, -10, 17, -1, -1, 0), 0, 1.1707606613871706)
((0, -1, -7, -10, 17, -1, -1, 0), 0, 1.1718508474885523)
((0, -1, -1, -2, -13, -7, -1, 1), 0, 1.1729837971660864)
((0, -1, -1, -2, -13, -7, -1, 1), 0, 1.173876700636151)
((0, -1, -1, -2, -13, -7, -1, 1), 0, 1.1747365336073243)
((0, -1, -1, -2, -13, -7, -1, 1), 0, 1.1756054894747436)
((0, -1, -1, -2, -13, -7, -1, 1), 0, 1.177808098737106)
((0, -1, -1, -2, -13, -7, -1, 1), 0, 1.1789581538451013)
((-3, -2, -3, -4, 20, 10, -2, -2), 0, 1.179927461571225)
((2, 1, 4, 7, -19, 2, 5, 1), 0, 1.18081295268809)
((2, 1, 4, 7, -19, 2, 5, 1), 0, 1.1816636627630175)
((2, 1, 4, 7, -19, 2, 5, 1), 0, 1.1825366098975443)
((2, 1, 4, 7, -19, 2, 5, 1), 0, 1.1836632875839093)
((2, 1, 4, 7, -19, 2, 5, 1), 0, 1.1847215435484304)
((2, 1, 4, 7, -19, 2, 5, 1), 0, 1.1857843609610743)
((2, 1, 4, 7, -19, 2, 5, 1), 0, 1.1875074479895131)
((2, 1, 4, 7, -19, 2, 5, 1), 0, 1.1883644300556098)
((2, 1, 4, 7, -19, 2, 5, 1), 0, 1.1891706660113386)
((2, 1, 4, 7, -19, 2, 5, 1), 0, 1.1900453236889115)
((2, 1, 4, 7, -19, 2, 5, 1), 0, 1.190931955167807)
((2, 1, 4, 7, -19, 2, 5, 1), 0, 1.191620163653355)
((2, 1, 4, 7, -19, 2, 5, 1), 0, 1.19203183434645)
((2, 1, 4, 7, -19, 2, 5, 1), 0, 1.1929612294014982)
((2, 1, 4, 7, -19, 2, 5, 1), 0, 1.1947424748935045)
((-5, -5, -5, -10, -1, 2, -5, -2), 0, 1.1967506524296267)
((-5, -5, -5, -10, -1, 2, -5, -2), 0, 1.1976258802882151)
((-5, -5, -5, -10, -1, 2, -5, -2), 0, 1.1984264144337904)
((-5, -5, -5, -10, -1, 2, -5, -2), 0, 1.199103219299031)
((-5, -5, -5, -10, -1, 2, -5, -2), 0, 1.2006917436078433)
((-5, -5, -5, -10, -1, 2, -5, -2), 0, 1.202074432570108)
((-5, 1, -1, -1, 34, -8, -5, -4), 0, 1.2031731713867202)
((0, -1, -2, -1, 12, 11, -1, 0), 0, 1.203929801594112)
((0, -1, -2, -1, 12, 11, -1, 0), 0, 1.2047708185917783)
((0, -1, -2, -1, 12, 11, -1, 0), 0, 1.2055531069448617)
((0, -1, -2, -1, 12, 11, -1, 0), 0, 1.2066826355363036)
((0, -1, -2, -1, 12, 11, -1, 0), 0, 1.2074369850196343)
((0, -1, -2, -1, 12, 11, -1, 0), 0, 1.2084176963660653)
((0, -1, -2, -1, 12, 11, -1, 0), 0, 1.2095728831031989)
((0, -1, -2, -1, 12, 11, -1, 0), 0, 1.210772543959531)
((0, -1, -2, -1, 12, 11, -1, 0), 0, 1.2118422035443592)
((0, -1, -2, -1, 12, 11, -1, 0), 0, 1.2128428712263282)
((0, -1, -2, -1, 12, 11, -1, 0), 0, 1.213619457769258)
((0, -1, -2, -1, 12, 11, -1, 0), 0, 1.2143424472967432)
((0, -1, -2, -1, 12, 11, -1, 0), 0, 1.216336940488497)
((0, -1, -2, -1, 12, 11, -1, 0), 0, 1.217855332532419)
((0, 1, 0, -1, 0, 4, 1, -2), 0, 1.2191673190487784)
((0, 1, 0, -1, 0, 4, 1, -2), 0, 1.2200761875872734)
((0, 1, 0, -1, 0, 4, 1, -2), 0, 1.220922336214078)
((0, 1, 0, -1, 0, 4, 1, -2), 0, 1.2217223001786377)
((0, 1, 0, -1, 0, 4, 1, -2), 0, 1.2224549827833842)
((0, 1, 0, -1, 0, 4, 1, -2), 0, 1.223245823851698)
((0, 1, 0, -1, 0, 4, 1, -2), 0, 1.2242442108096057)
((-3, -1, -2, -12, -9, -5, -2, -4), 0, 1.2256559790036543)
((-3, -1, -2, -12, -9, -5, -2, -4), 0, 1.2266475237893775)
((-3, -1, -2, -12, -9, -5, -2, -4), 0, 1.2275712170342719)
((-3, -1, -2, -12, -9, -5, -2, -4), 0, 1.2285359633122728)
((-3, -1, -2, -12, -9, -5, -2, -4), 0, 1.2297430365218045)
((-3, -1, -2, -12, -9, -5, -2, -4), 0, 1.2306233960095312)
((-3, -1, -2, -12, -9, -5, -2, -4), 0, 1.2322295959298197)
((-3, -1, -2, -12, -9, -5, -2, -4), 0, 1.2336596099163601)
((-3, -1, -2, -12, -9, -5, -2, -4), 0, 1.2348986132627526)
((-3, -1, -2, -12, -9, -5, -2, -4), 0, 1.2361832310903742)
((-3, -1, -2, -12, -9, -5, -2, -4), 0, 1.2371918813065583)
((-3, -1, -2, -12, -9, -5, -2, -4), 0, 1.2380779426044386)
((-3, -1, -2, -12, -9, -5, -2, -4), 0, 1.2394167276285202)
((-3, -2, -2, 6, 0, -1, -1, -2), 0, 1.2403506841316914)
((-3, -2, -2, 6, 0, -1, -1, -2), 0, 1.2411791571470194)
((-3, -2, -2, 6, 0, -1, -1, -2), 0, 1.2420372795751466)
((-3, -2, -2, 6, 0, -1, -1, -2), 0, 1.2436161108066979)
((-3, -2, -2, 6, 0, -1, -1, -2), 0, 1.2445460760427614)
((-3, -2, -2, 6, 0, -1, -1, -2), 0, 1.2454925765282705)
((-3, -2, -2, 6, 0, -1, -1, -2), 0, 1.2467606591064466)
((-3, -2, -2, 6, 0, -1, -1, -2), 0, 1.247977995574255)
((-3, -2, -2, 6, 0, -1, -1, -2), 0, 1.2487277836094626)
((-3, -2, -2, 6, 0, -1, -1, -2), 0, 1.2499622255077318)
((-3, -2, -2, 6, 0, -1, -1, -2), 0, 1.2509463579402553)
((-3, -2, -2, 6, 0, -1, -1, -2), 0, 1.2530999316352962)
((-3, -2, -2, 6, 0, -1, -1, -2), 0, 1.2545550335865128)
((0, 1, 0, -1, 49, -5, -1, 0), 0, 1.255989609021176)
((0, 1, 0, -1, 49, -5, -1, 0), 0, 1.2572816392019974)
((0, 1, 0, -1, 49, -5, -1, 0), 0, 1.2583695445793175)
((0, 1, 0, -1, 49, -5, -1, 0), 0, 1.2596068373826639)
((0, 1, 0, -1, 49, -5, -1, 0), 0, 1.2606189086849402)
((-2, -1, -4, -3, -5, -18, -5, -2), 0, 1.262807833602934)
((-2, -1, -4, -3, -5, -18, -5, -2), 0, 1.2638153434570873)
((-2, -1, -4, -3, -5, -18, -5, -2), 0, 1.2650087323222503)
((-2, -1, -4, -3, -5, -18, -5, -2), 0, 1.2660795322691094)
((-2, -1, -4, -3, -5, -18, -5, -2), 0, 1.2669547601276978)
((-2, -1, -4, -3, -5, -18, -5, -2), 0, 1.2678790235536075)
((-2, -1, -4, -3, -5, -18, -5, -2), 0, 1.268884822864715)
((-2, -1, -4, -3, -5, -18, -5, -2), 0, 1.27008163281597)
((-2, -1, -4, -3, -5, -18, -5, -2), 0, 1.27112278335003)
((-2, -1, -4, -3, -5, -18, -5, -2), 0, 1.27271529892595)
((-2, -1, -4, -3, -5, -18, -5, -2), 0, 1.2734650869611575)
((-2, -1, -4, -3, -5, -18, -5, -2), 0, 1.2742125942723037)
((-2, -1, -4, -3, -5, -18, -5, -2), 0, 1.2750131284178787)
((-2, -1, -4, -3, -5, -18, -5, -2), 0, 1.2759909888592331)
((-2, -1, -4, -3, -5, -18, -5, -2), 0, 1.2770087619716632)
((-2, 0, 0, 1, 51, 1, 1, -1), 0, 1.278072719746338)
((-2, 0, 0, 1, 51, 1, 1, -1), 0, 1.2789838690088942)
((-2, 0, 0, 1, 51, 1, 1, -1), 0, 1.2799491854679106)
((-2, 0, 0, 1, 51, 1, 1, -1), 0, 1.282151794730273)
((-2, 0, 0, 1, 51, 1, 1, -1), 0, 1.2837642666417308)
((-2, 0, 0, 1, 51, 1, 1, -1), 0, 1.2850038401691386)
((0, -1, -1, -4, 7, 4, -2, -1), 0, 1.2859474897495708)
((0, -1, -1, -4, 7, 4, -2, -1), 0, 1.2868694724514191)
((0, -1, -1, -4, 7, 4, -2, -1), 0, 1.287845052168712)
((0, -1, -1, -4, 7, 4, -2, -1), 0, 1.2887436574489304)
((0, -1, -1, -4, 7, 4, -2, -1), 0, 1.2895316476121674)
((0, -1, -1, -4, 7, 4, -2, -1), 0, 1.2905117887775832)
((0, -1, -1, -4, 7, 4, -2, -1), 0, 1.2918887759296944)
((0, -1, -1, -4, 7, 4, -2, -1), 0, 1.2929373388169543)
((0, -1, -1, -4, 7, 4, -2, -1), 0, 1.2937926103400046)
((0, -1, -1, -4, 7, 4, -2, -1), 0, 1.2945766092361342)
((0, -1, -1, -4, 7, 4, -2, -1), 0, 1.2953908277260782)
((0, -1, -1, -4, 7, 4, -2, -1), 0, 1.2962193007414065)
((0, -1, -1, -4, 7, 4, -2, -1), 0, 1.2971715030370692)
((0, -1, -1, -4, 7, 4, -2, -1), 0, 1.2982491451561127)
((-1, 2, 3, 4, -18, 11, 3, -2), 0, 1.3013241313719868)
((-1, 2, 3, 4, -18, 11, 3, -2), 0, 1.3025944946742243)
((-2, -2, 1, 0, 17, 7, 0, -1), 0, 1.3037713482899416)
((-2, -2, 1, 0, 17, 7, 0, -1), 0, 1.304624909269946)
((-2, -2, 1, 0, 17, 7, 0, -1), 0, 1.3074455947529662)
((-2, -2, 1, 0, 17, 7, 0, -1), 0, 1.3095877648277)
((-2, -2, 1, 0, 17, 7, 0, -1), 0, 1.3118120409686462)
((-2, -4, -4, -1, -35, -16, -5, -4), 2, 1.3334697966563445)
((0, 0, -5, -12, -27, -9, 2, 0), 2, 1.356330634286467)
((-2, 0, 1, -2, -34, 8, 0, -1), 2, 1.37775518593888)
((-1, -3, -1, -2, -6, 8, -1, -1), 2, 1.3962455860862149)
((1, 0, -1, 2, 16, -5, -1, 0), 0, 1.415008532758895)
((9, 2, 2, -6, -33, 8, 3, 42), 0, 1.4356587785924397)
((-4, 0, 0, -8, 1, -20, -3, -13), 0, 1.4555831839934223)
((-8, -5, -6, 6, 11, 2, -6, -11), 0, 1.478483364113605)
((-2, -4, -3, 1, 25, -20, -9, -9), 0, 1.4973671891615432)
((12, 9, 9, 20, 14, 63, 56, 27), 3, 1.5171302333351768)
((-28, -23, -18, -20, -62, -77, -127, -105), 3, 1.5356143614913427)
((36, 23, 18, 17, 20, 48, 97, 56), 0, 1.5549303837489288)
((41, 22, 13, 26, 35, 35, 32, 11), 0, 1.5778510903856648)
((2, -2, -2, -7, -10, 93, 115, 86), 1, 1.5977025126166804)
((-20, -11, -10, -24, -7, -37, -35, -14), 1, 1.6193819351829626)
((-9, -1, 3, 10, -40, -12, 19, -8), 1, 1.6386272549946432)
((-1, -4, -6, -17, -19, -9, -30, -7), 1, 1.6587888556980184)
((7, 7, 4, -14, 4, 9, -11, 4), 1, 1.6807043332046625)
((-3, 5, 6, 13, 12, -19, -3, -4), 1, 1.7019903308703415)
((1, 3, 0, -2, -16, -17, -5, 1), 1, 1.7220213601211978)
((2, 13, 1, 7, -2, -38, -10, 4), 1, 1.7411497928247281)
((15, 41, 2, 11, -2, 23, -4, 16), 1, 1.7697175722376584)
((2, 0, -1, 0, 4, -15, 18, 10), 1, 1.7905531269011974)
((-2, 14, 2, -2, 6, 8, -15, -13), 1, 1.8095971728144533)
((-2, -6, -1, 4, 1, -1, 16, -5), 1, 1.8284045936063322)
((0, 4, 0, -8, -3, 2, -10, 5), 1, 1.8472958310074699)
((-1, -6, -3, -11, -6, -16, -19, -15), 1, 1.867209973150176)
((-8, -3, -3, -1, 1, 6, -5, -15), 1, 1.887831139751937)
((2, -3, -7, -9, -2, 0, 2, -13), 1, 1.906468076420221)
((1, -2, -2, -8, -5, 5, -20, 5), 1, 1.9254773412915398)
((-4, -6, -2, -1, -7, 0, -6, 0), 1, 1.9449570055005363)
((-4, -2, -6, -12, -8, -23, -5, 0), 1, 1.9640649116875135)
((0, 2, -4, -5, -7, 5, -16, -2), 0, 1.9860704777945855)
((-2, -3, -6, -8, -6, -17, 30, 22), 0, 2.005872294277264)
((6, 3, 1, 2, -1, -9, 9, -6), 0, 2.0261599049850356)
((-6, -4, 0, 7, -1, -3, -1, -7), 1, 2.0475719126551106)
((-5, -2, -1, -6, 0, 0, 15, -1), 1, 2.0713752595036348)
((0, -2, -1, -4, -4, -11, -11, -16), 1, 2.0917814678626026)
((0, -1, -2, -15, -1, -3, -18, -6), 1, 2.111003410252653)
((-4, -2, 0, 12, -2, -20, -8, -8), 1, 2.1302578529605793)
((1, -1, 0, -6, -2, 2, -1, 1), 1, 2.1529504871911684)
((0, -3, -12, -27, -5, 0, -4, 2), 1, 2.1741110450334666)
((-3, -1, -3, 2, -11, -8, -18, -12), 1, 2.194496156694866)
((-3, -6, -4, -1, 1, -7, -13, -5), 1, 2.2142352532658545)
((0, 14, 5, 6, -4, -3, -13, 2), 1, 2.2339201826403827)
((0, -7, -1, -1, 0, 2, -3, 21), 1, 2.2542100740722155)
((-1, 1, 3, 6, 4, 6, 12, -3), 1, 2.2749447066960347)
((6, 1, 0, 5, 12, 38, 4, -10), 0, 2.297202292811899)
((-3, -5, -4, -9, -8, -15, 4, -2), 0, 2.317138672014204)
((-2, -7, -2, -3, 1, -7, -12, -5), 0, 2.3362346043998587)
((-1, -11, -7, -14, -7, -7, 12, 10), 0, 2.3553282560614517)
((-2, 3, 2, 2, -1, -5, -17, -9), 0, 2.3749002895949376)
((-4, 1, -2, 4, -2, -8, 5, 4), 0, 2.3965500627484206)
((-2, -5, -4, -10, -2, -3, -8, -9), 0, 2.4161870969176586)
((-4, -3, -1, 6, -1, -5, -4, -8), 0, 2.435767683166375)
((-1, 0, -6, -4, -6, -1, 5, 3), 0, 2.4560872240110068)
((0, 1, -2, -1, 1, 4, 2, -1), 0, 2.4748421881494718)
((1, 2, 0, 4, 0, -5, 18, 4), 0, 2.49567660245098)
((-1, -1, 1, 0, 2, 2, 9, -10), 0, 2.5167385189776197)
((0, -1, 0, -6, -4, 9, 1, 3), 0, 2.5357523452970616)
((-2, -9, -6, 1, -6, -9, -6, -5), 0, 2.5558711824242843)
((1, 1, 0, 9, 0, 5, 11, -4), 0, 2.575050931419198)
((-6, 2, 1, -4, -1, 7, 3, 6), 0, 2.595648720599329)
((0, 1, -1, -2, 3, 4, 9, 5), 0, 2.6156677760488622)
((-3, 7, -4, -11, -4, -7, -23, -2), 0, 2.636282670659454)
((0, 8, 4, 13, 8, 7, -7, 2), 0, 2.6547086403520526)
((0, -6, 0, 1, 1, 6, 8, -2), 1, 2.674815503677953)
((-1, -4, 1, -3, 3, 8, -3, -3), 1, 2.698505954685434)
((-1, -3, -3, -19, -1, -1, -12, -13), 1, 2.7182279458259613)
((-2, -9, -2, -3, -3, -5, 24, 15), 1, 2.73727541282531)
((-2, -1, 1, 12, 1, 3, 1, 14), 1, 2.765015289403927)
((0, -1, 1, -2, 2, 21, -8, -7), 1, 2.7844470584076326)
((-4, -3, -7, -11, -6, -11, 11, -8), 1, 2.8060534978039477)
((-2, -3, -2, -3, -3, -6, -19, -6), 1, 2.826492776661807)
((8, -2, -4, -4, -1, -5, 1, 0), 1, 2.849353044110914)
((-4, -1, -1, 0, -8, -23, -20, -19), 1, 2.87001298302172)
((-1, 0, -1, 10, -3, -3, -10, -6), 1, 2.88771881409191)
((-2, -2, -1, 0, -1, 3, 1, 1), 1, 2.90971354675969)
((-1, -1, -2, 2, -2, -3, -8, -4), 1, 2.9277808725936225)
((-1, -1, 0, 3, -4, -8, 0, -4), 1, 2.9493223113541855)
((4, -1, 0, 3, 2, -3, -9, -4), 1, 2.968835616243089)
((1, -2, 2, 7, 5, 8, -11, -1), 1, 2.9887788376175783)
((1, 1, 1, 8, 3, 8, -11, -5), 1, 3.0110689240513184)
((-11, -2, -2, -6, -1, 1, 2, 4), 1, 3.0305679744148373)
((2, 0, -3, -5, -4, 3, 1, -3), 1, 3.05026715831475)
((-2, 0, -4, -19, -3, -3, -2, 0), 1, 3.0691481324576113)
((3, -2, 2, -1, -1, -1, 3, 0), 1, 3.0892783732051416)
((-1, -8, -5, -12, -3, -4, 1, 8), 1, 3.1085442195333752)
((0, 4, 2, 3, 3, 9, -4, -7), 1, 3.1261439969347067)
((3, 1, -1, 2, 2, 13, -4, -1), 1, 3.1457331358986536)
((2, -2, -1, 0, 0, 3, -9, -1), 1, 3.164499503657426)
((-1, -1, 0, 4, -1, -3, -6, 2), 1, 3.18438684729241)
((2, 1, 2, 4, -1, -3, 0, -1), 1, 3.2053335872539455)
((-2, -7, -5, -2, -1, -8, 0, -4), 1, 3.2235885026419338)
((-1, 0, 0, -3, -1, -5, 1, 1), 1, 3.2415087217739016)
((-1, -2, -3, -1, -2, -1, 1, 1), 1, 3.2609878158018826)
((-1, -1, 0, -1, 0, 1, 1, -4), 1, 3.2804463833133104)
((1, -3, -3, 3, -4, -14, 20, 9), 1, 3.3035752060206556)
((-5, -2, -3, -4, -4, -7, 5, -2), 1, 3.327210349469646)
((0, 0, -2, 1, -2, 0, 21, -4), 1, 3.349442277439819)
((-2, -2, -3, -5, 4, 23, 14, 7), 1, 3.3698496261608173)
((-3, 0, -3, -5, 3, 13, 11, -4), 1, 3.3890025766480085)
((-3, -1, -3, 4, -1, -1, -8, 1), 1, 3.4096117694484467)
((-2, 2, 3, 0, -3, 2, -5, -3), 1, 3.4324823001558307)
((1, -1, 1, -3, -1, 0, 15, 5), 1, 3.4539843964263333)
((7, 12, -2, 6, -4, -4, -3, -1), 1, 3.4722358907282294)
((-6, -6, -5, -7, -4, -5, -13, -3), 1, 3.4925571421159076)
((0, 0, 2, 7, 3, 3, -6, -1), 1, 3.51578346577688)
((-3, -2, -3, -6, -6, -7, -2, -7), 1, 3.5375546874866366)
((-2, 0, 1, -1, 2, 0, -9, -2), 1, 3.559832800119054)
((0, 2, 1, 3, 1, -5, -22, -12), 1, 3.583083071382672)
((0, 2, -2, 1, -4, -3, 10, 5), 1, 3.6050646898870986)
((-3, -5, -4, 3, 1, 0, 13, 1), 1, 3.6281114065282307)
((-1, -2, -4, -22, -5, 0, 11, -9), 1, 3.6499042951165706)
((-4, -1, -3, -5, -3, -6, -15, -2), 1, 3.6722291625922483)
((-2, 7, -4, 1, -3, -8, -20, -10), 1, 3.6935858627038325)
((-2, -3, 1, 7, 3, 4, 17, 7), 1, 3.7196716441568705)
((-2, -6, -1, 1, -2, -2, -1, -2), 1, 3.7445235538926545)
((-7, 1, -2, 3, 0, 14, 13, -2), 1, 3.7800555242272766)
((-1, -5, -2, 2, -2, -6, -18, -3), 1, 3.8034939552259655)
((2, -1, 0, -1, -1, 2, 9, -3), 1, 3.826585145986296)
((-1, -5, -5, -11, -5, -8, 9, 1), 1, 3.849544624932077)
((-1, 7, 3, 5, -2, -1, -11, -10), 1, 3.8711824242842376)
((0, -4, -4, 0, -1, -4, -13, -1), 1, 3.8919073638307955)
((-1, -4, 0, -2, -2, -11, 1, 2), 1, 3.9187754336369167)
((-1, -1, 1, 9, 3, 10, 1, 0), 1, 3.9410153441413045)
((0, -2, -2, 4, 1, 6, 4, 8), 1, 3.9633282378156593)
((-2, 2, -5, -6, -1, -4, -9, -6), 1, 3.986475306315496)
((1, -5, 0, 0, 0, -2, -1, 22), 1, 4.007049147892982)
((-1, 0, 1, 7, 0, 3, 18, -6), 1, 4.033686864568895)
((-1, -6, -1, -1, -2, -3, 11, 4), 1, 4.05492895829639)
((0, 0, -1, 1, -1, 1, 0, -1), 1, 4.074671475953471)
((1, 12, 0, -3, -3, -5, -5, -8), 1, 4.098010125274471)
((-3, -4, -5, -12, -2, -4, -5, -11), 1, 4.121211360970768)
((1, -5, -3, -3, -5, 2, 2, 0), 1, 4.1436223257797655)
((-2, 0, 0, 2, 2, 3, -7, -2), 1, 4.167929712645874)
((-4, -8, -4, -5, -2, -1, 1, 0), 1, 4.190823050593872)
((1, -1, 0, 7, -2, -1, 6, 0), 1, 4.212887345345527)
((-1, -2, 3, 12, 1, 1, 0, 1), 1, 4.2390746190193)
((-3, -3, -3, -4, -3, 5, 10, -2), 1, 4.260044736402466)
((-5, -6, -4, -10, -3, -5, -5, -2), 1, 4.283202068160579)
((2, -3, -1, -2, 2, 5, 4, 3), 1, 4.3057242182675735)
((-3, -4, -4, -7, -1, 5, 0, -2), 1, 4.326310033646382)
((1, -1, -1, 0, -1, 2, 13, -1), 1, 4.351452735700002)
((-1, -7, 1, 4, -1, 0, -10, 4), 1, 4.374271379934988)
((-3, -7, -2, -10, 0, -4, -12, 1), 1, 4.395412551622764)
((-3, -3, -4, -6, -5, -6, 7, -7), 1, 4.420842624908129)
((1, 0, -1, 1, -1, 0, -5, -2), 1, 4.4467299833678195)
((-1, -2, 0, 3, 1, -2, -4, 1), 1, 4.469957447390823)
((-4, 0, -2, -1, -1, 1, 6, 5), 1, 4.4916152030785215)
((-4, -2, -4, -2, -2, 2, -8, 4), 1, 4.51703273238155)
((0, -1, -1, 2, 0, 1, 8, 17), 1, 4.542319690232058)
((-2, -2, -4, -12, -3, -6, -8, -1), 1, 4.564598943226506)
((-2, 0, 1, 5, 0, 3, 17, -2), 1, 4.5858986252365534)
((0, 0, 0, 5, 1, 7, 4, 1), 1, 4.605373157816412)
((4, 1, 1, 1, 0, -1, 2, -6), 1, 4.623797416965965)
((-3, -1, -2, 5, -3, -4, -1, -2), 1, 4.649803943257866)
((-2, -3, -1, 0, 0, 0, -7, -14), 1, 4.670991869788902)
((-3, -3, -4, -5, -2, -7, -15, -8), 1, 4.6946863120634905)
((-3, -1, -1, -1, -2, 3, 2, 0), 1, 4.71741087643094)
((0, -3, 0, 2, 0, -6, -10, -2), 1, 4.746342431331675)
((-2, -1, -2, 1, 2, 4, -5, -1), 1, 4.7784510348500335)
((-2, -3, -3, -10, -5, -8, -12, -9), 1, 4.801585559367532)
((0, -1, 0, 10, 0, -1, 9, -1), 1, 4.822484404123777)
((-1, -2, -4, -2, -2, -1, -16, 0), 1, 4.846554025506477)
((-1, 0, 1, -1, -1, 3, 5, -10), 1, 4.867866821679879)
((-2, 1, 4, 2, 1, 3, 5, 2), 1, 4.890201382232817)
((-2, -1, 1, 1, -1, -2, 21, -3), 1, 4.9133273540350855)
((-1, -1, 0, -2, 0, -1, -14, -4), 1, 4.937187148804131)
((-1, -3, -2, -4, -2, 0, -8, -4), 1, 4.963658372623557)
((0, -1, -4, -12, -3, -2, 20, 25), 1, 4.985099459525416)
((-3, -5, -4, -3, 0, -8, -12, -5), 1, 5.006721293809146)
((-3, 0, 0, 2, -1, -1, 11, -6), 1, 5.031328025708322)
((-1, -2, -3, -7, -4, -4, -5, 15), 1, 5.054611937651846)
((-1, -1, 1, 2, 0, 4, 25, -11), 1, 5.077426590619724)
((-2, -2, -3, -2, -3, 0, -13, -5), 1, 5.099056977618685)
((-1, -3, 0, 3, -1, -2, 9, -6), 1, 5.121522109624142)
((0, -1, -2, -1, 3, 3, -8, 4), 1, 5.14665169751441)
((-1, 1, 1, -2, 0, 2, 34, -2), 1, 5.168360769493491)
((-4, -2, -3, -4, -2, 3, -7, -2), 1, 5.190443880218653)
((-3, -3, 0, 4, -1, -5, -11, -14), 1, 5.213329805813451)
((-2, -2, -3, -8, -3, -11, -4, -4), 1, 5.23436720455643)
((0, -1, 0, 6, 0, 4, -3, -4), 1, 5.260426187501746)
((-1, -1, 0, -4, -4, 4, 31, 4), 1, 5.282574869043676)
((-1, 2, 1, 1, 3, 2, -15, -2), 1, 5.303869419424585)
((-1, -1, -3, -5, -3, 0, -7, 0), 1, 5.325273444560445)
((-1, -2, -2, 8, 0, -2, -39, -5), 1, 5.351318743161391)
((-2, -1, -1, 3, -3, -3, -7, -2), 1, 5.373712032358913)
((-2, -1, -1, 3, -3, -3, -7, -2), 1, 5.392640331526049)
((-3, -1, -1, -1, 2, 2, 3, -4), 1, 5.415976700122988)
((-1, -1, -1, -1, 0, -1, -15, -3), 1, 5.437528972322843)
((-1, -2, -1, -5, -2, -5, -3, -9), 1, 5.463032028778176)
((-2, 1, -2, -3, -5, -7, 10, -8), 1, 5.485247991679919)
((-1, 0, 2, 4, 2, 1, 6, 2), 1, 5.505439241796093)
((0, 0, 0, -3, -1, 3, 34, -2), 1, 5.529668513863096)
((-2, 0, 2, 0, -1, -2, 3, 3), 1, 5.551601096800201)
((-1, -1, 1, 3, 0, -2, -9, 5), 1, 5.5747550074722225)
((-1, -1, -3, -3, -3, -5, 10, 3), 1, 5.599230027556849)
((-2, -3, -4, -6, -2, -8, -13, 2), 1, 5.6207851506617805)
((0, -3, -3, -3, -1, 0, 1, 0), 1, 5.643341511629697)
((0, -1, 2, 2, -4, -4, -4, -5), 1, 5.668065700818039)
((0, 2, 0, 2, -3, -2, -27, -13), 1, 5.689102529380002)
((-2, -4, -2, -3, -1, -5, -15, -7), 1, 5.7097955387897)
((-1, -1, -1, -3, -1, -3, 9, 0), 1, 5.726139207414178)
((-1, -1, 0, -1, -1, -1, -6, -14), 1, 5.743395735844259)
((-1, -1, 0, -1, -1, -1, -6, -14), 0, 5.745592073115452)
((-1, -1, 0, -1, -1, -1, -6, -14), 0, 5.747589417212282)
((-2, -1, -3, -10, -2, 0, 9, -4), 0, 5.7490627649559904)
((-2, -1, -3, -10, -2, 0, 9, -4), 0, 5.750413523781395)
((-2, -1, -3, -10, -2, 0, 9, -4), 0, 5.75145524449647)
((-2, -1, -3, -10, -2, 0, 9, -4), 0, 5.752779774995168)
((-2, -1, -3, -10, -2, 0, 9, -4), 0, 5.754521107816099)
((-1, -1, -7, -15, -6, -6, -1, 0), 0, 5.755630680072002)
((-1, -1, -7, -15, -6, -6, -1, 0), 0, 5.757222625466907)
((-1, -1, -7, -15, -6, -6, -1, 0), 0, 5.766967019019528)
((-1, -1, -7, -15, -6, -6, -1, 0), 0, 5.768187206392414)
((-3, 0, 1, 1, -1, 0, 11, 0), 0, 5.770979953005681)
((0, -3, 0, 3, -1, -3, 0, -4), 0, 5.7724470287582195)
((0, -3, 0, 3, -1, -3, 0, -4), 0, 5.773456819336435)
((0, -3, 0, 3, -1, -3, 0, -4), 0, 5.774337178824161)
((-2, -2, 0, 1, -2, 1, -1, -6), 0, 5.8036479041001146)
((-1, -1, 0, 2, -1, -5, -6, 4), 0, 5.806438369989321)
((-1, -1, 0, 2, -1, -5, -6, 4), 0, 5.807969876196596)
((-1, -1, 0, 2, -1, -5, -6, 4), 0, 5.810507181714979)
((-1, -1, 0, 2, -1, -5, -6, 4), 0, 5.813012557096501)
((-2, 0, -1, 2, -2, -5, -16, -3), 0, 5.8161610966633575)
((0, 0, -3, -3, -2, 0, -9, 3), 0, 5.817635014588081)
((0, 0, -3, -3, -2, 0, -9, 3), 0, 5.819756658146262)
((0, 0, -3, -3, -2, 0, -9, 3), 0, 5.820999082578746)
((0, 0, -3, -3, -2, 0, -9, 3), 0, 5.822105233748558)
((0, 0, -3, -3, -2, 0, -9, 3), 0, 5.823432615152332)
((0, 0, -3, -3, -2, 0, -9, 3), 0, 5.825826805235859)
((0, 0, -3, -3, -2, 0, -9, 3), 0, 5.827378267778672)
((0, 0, -3, -3, -2, 0, -9, 3), 0, 5.828957099010223)
((0, 0, -3, -3, -2, 0, -9, 3), 0, 5.830257681906275)
((-3, -1, -1, -6, 0, -4, -1, -5), 0, 5.831899803230532)
((-3, -1, -1, -6, 0, -4, -1, -5), 0, 5.8447442709637025)
((-2, -2, -2, -3, -3, -4, -16, -1), 0, 5.847308374989808)
((-1, 0, 1, -2, -2, -1, 9, 3), 0, 5.85034915034476)
((-1, 0, 1, -2, -2, -1, 9, 3), 0, 5.861821762554959)
((-1, -1, -3, -3, -3, 1, 14, 2), 0, 5.868704417591453)
((0, -2, -3, 2, 2, 5, 0, -7), 0, 5.870990273282059)
((0, -2, -3, 2, 2, 5, 0, -7), 0, 5.872383795683616)
((0, -2, -3, 2, 2, 5, 0, -7), 0, 5.873619948124931)
((0, -2, -3, 2, 2, 5, 0, -7), 0, 5.876594012301085)
((0, -2, -3, 2, 2, 5, 0, -7), 0, 5.878299993899063)
((0, -2, -3, 2, 2, 5, 0, -7), 0, 5.879554962313886)
((0, -2, -3, 2, 2, 5, 0, -7), 0, 5.880856115390953)
((-2, -3, -2, 0, -1, 1, 3, -3), 0, 5.886107482542482)
((-2, -3, -2, 0, -1, 1, 3, -3), 0, 5.88725354638337)
((-2, -3, -2, 0, -1, 1, 3, -3), 0, 5.888662463672342)
((-2, -3, -2, 0, -1, 1, 3, -3), 0, 5.890114144537466)
((-2, -3, -2, 0, -1, 1, 3, -3), 0, 5.891200909552755)
((-2, -3, -2, 0, -1, 1, 3, -3), 0, 5.892441623442195)
((-1, -1, -3, -2, 1, -6, 0, 0), 0, 5.907090143907986)
((-2, -1, 0, 1, 2, 6, 14, -3), 1, 5.928006664275707)
((2, 0, 1, 5, 0, 5, 19, -4), 1, 5.9471031668423775)
((-1, -1, -1, 0, -2, 1, -7, 3), 1, 5.972147797761355)
((0, -1, -1, 0, -1, 1, -6, -6), 1, 5.991329257299315)
((-3, -2, -2, -4, -3, -3, 16, 5), 1, 6.012205294814945)
((-3, -2, -1, -2, -3, -2, 13, 4), 1, 6.03092091646335)
((-3, -2, -2, -5, -2, 3, 1, -3), 1, 6.050389177052039)
((-2, -1, 0, -3, -1, -4, -2, -5), 1, 6.070221213128532)
((0, -1, -2, -7, -3, 0, 10, 2), 1, 6.091502649346088)
((1, -1, -1, 3, 0, 3, 17, 12), 1, 6.112100438526219)
((3, 0, 0, 1, 0, 4, -13, -4), 1, 6.13221699492938)
((-3, -1, 0, 0, -3, -4, 1, 2), 1, 6.151028406988367)
((-3, -2, -3, -11, 0, 9, -9, -8), 1, 6.175600357845605)
((-2, 2, -1, -3, -4, -4, -5, 0), 1, 6.197492457930619)
((0, -3, -3, 3, 1, 3, 24, -1), 1, 6.216562161989567)
((0, -1, -4, 4, -1, -1, 3, 1), 1, 6.234930543399613)
((-2, -2, 0, 1, -1, -2, -25, 1), 1, 6.254407356703533)
((-5, -2, -2, -3, -3, 5, -4, -7), 1, 6.276687750060011)
((-1, -2, -2, -3, -3, -6, 5, 0), 1, 6.297255319646328)
((-1, -2, -3, -4, -5, -1, 0, 1), 1, 6.315286153895277)
((-1, -1, -3, -13, -3, 1, -14, -2), 1, 6.334622132488401)
((-2, -1, 3, 4, -3, 0, 11, 2), 1, 6.352889591858728)
((1, 1, -1, -1, -3, -4, -5, 4), 1, 6.37257281069021)
((-2, -2, 0, 3, -1, 1, 4, -1), 1, 6.392925422033733)
((0, -1, -2, -10, -3, -3, -7, 1), 1, 6.411308057969164)
((-2, -3, -2, -2, 0, 2, -9, -5), 1, 6.4306320627609646)
((1, -1, 1, 3, 0, -6, -15, 7), 1, 6.449160094855314)
((-3, -1, -1, -6, -1, 0, 6, 1), 1, 6.46879484830049)
((0, -1, 0, 1, -3, 2, -6, 0), 1, 6.489346452818376)
((-2, -1, -2, -1, 1, 4, 19, -1), 1, 6.510040602590104)
((-1, -2, 0, 3, 1, 1, -3, -9), 1, 6.530171983699665)
((1, 0, -1, 2, 2, 2, 17, -5), 1, 6.5498209916702255)
((-3, -2, 1, -2, -3, -3, -16, -10), 1, 6.568901529168465)
((0, -1, -2, -3, -1, 1, 7, 30), 1, 6.596935048969996)
((-1, -2, -3, 0, -3, -7, -12, -3), 1, 6.616866866724179)
((-2, -2, -4, -9, -2, -6, 23, 4), 1, 6.635768937564609)
((-4, -2, -3, -1, -3, -10, -12, -17), 1, 6.656058258815426)
((0, -2, -1, 1, -2, -4, -23, -8), 1, 6.677887068807735)
((-1, -1, 0, 7, -3, -2, -11, -5), 1, 6.699536271780202)
((1, 2, 0, 1, 3, 5, 8, 7), 1, 6.719433308492447)
((-1, -3, -2, -4, -1, -2, -7, -10), 1, 6.737796558273355)
((2, -1, -3, -8, -2, -1, 10, 4), 1, 6.761813723002642)
((-2, -1, -2, -3, -2, -1, 5, -4), 1, 6.781164526302165)
((-3, -3, -1, 1, -2, -5, -27, -9), 1, 6.803579482378271)
((0, -1, -1, -5, 1, 1, -20, 2), 1, 6.822315060362214)
((-2, 0, -2, 1, -1, 1, 5, 3), 1, 6.841308360165102)
((-3, -3, 0, -6, -4, -2, 7, 0), 1, 6.860219553901778)
((-4, -4, -2, -9, 0, -1, 2, -23), 1, 6.880923396750767)
((0, 0, 0, 14, 0, 1, -7, 0), 1, 6.903339493188903)
((-2, -2, 0, 1, -3, -1, -17, -3), 1, 6.922133799817428)
((1, -1, -2, -3, -1, -2, 7, 26), 1, 6.94326926969505)
((0, -2, -1, -1, -1, 0, 3, -2), 1, 6.963388677003288)
((0, -1, 1, -4, 0, 1, 23, -4), 1, 6.983196765477136)
((-4, -4, -2, -1, -3, -2, 4, -3), 1, 7.002736298692746)
((2, 0, 0, 1, -2, 3, -15, -5), 1, 7.025282396402386)
((-2, 0, -5, -6, -2, -4, -7, 5), 1, 7.044621796081602)
((2, 1, 2, 5, 1, 3, 11, 3), 1, 7.064269663690132)
((-2, -2, -4, 5, -2, -2, 4, 4), 1, 7.083747617356082)
((-1, -1, -2, -5, -3, 0, -4, -3), 1, 7.105095764752436)
((1, 0, 2, -5, 0, -1, 14, -3), 1, 7.123904896087361)
((-3, -4, -2, -1, -4, 0, 11, 3), 1, 7.144436544269709)
((-1, -2, -2, -4, -1, -3, -9, -5), 1, 7.163672171004129)
((-3, -2, -5, -22, -3, -5, 7, 0), 1, 7.183985439857592)
((-1, -1, 0, 11, -1, 0, -3, 2), 1, 7.2053963071656355)
((-1, -2, -1, 4, -1, 2, 14, 1), 1, 7.224724303224544)
((-1, -2, -1, 1, -1, -5, -9, -6), 1, 7.2442170815968945)
((0, -3, -2, -8, 0, -3, -2, -3), 1, 7.264183680393014)
((-2, -2, -2, 3, 0, 0, -20, 3), 1, 7.284050497511445)
((0, 1, 0, 1, 1, 6, -2, -3), 1, 7.309095698611438)
((-3, -3, -2, 1, -4, 0, 24, -3), 1, 7.329065148312635)
((-1, -1, -1, -1, -1, -2, -22, -3), 1, 7.348287660883701)
((-1, -1, -1, -4, -3, -4, -4, -2), 1, 7.367424076121447)
((-1, -3, -3, -13, -3, -5, -12, -1), 1, 7.388867443747366)
((-3, -2, -2, -2, -4, 1, 16, -2), 1, 7.41482208356687)
((0, -1, -1, 1, 0, -1, -1, -4), 1, 7.43331305389522)
((1, 0, 0, -1, -1, 0, 0, -4), 1, 7.452943816073288)
((-3, -2, -2, -6, -1, -2, -3, 0), 1, 7.472161197015216)
((1, 2, 0, -5, -1, -2, -3, 21), 1, 7.493247061144501)
((-1, -2, 2, 10, -1, 2, -8, -10), 1, 7.513627611357777)
((-4, -3, -5, -8, -3, 0, 34, 1), 1, 7.532056431955453)
((-1, 0, 1, 8, -1, -6, -10, -7), 1, 7.551004117277112)
((-1, -2, -2, -4, -2, -3, 2, -3), 1, 7.570650274342595)
((-1, -1, -2, -2, 0, -1, -12, 3), 1, 7.588235797218543)
((2, -2, -1, 2, -6, -4, -10, -2), 1, 7.612096732349619)
((-1, -2, 1, -9, 0, 2, -10, -1), 1, 7.632474431657818)
((0, -1, 0, 7, 0, -1, 5, -4), 1, 7.649698459770023)
((-2, -1, 0, 0, 0, 2, -5, -2), 1, 7.669972956314441)
((-1, 1, 1, -3, 0, 7, 34, -3), 1, 7.689327180700057)
((-2, -2, -2, -2, -1, -2, -15, -2), 1, 7.710889145977173)
((-1, 1, 2, 5, 0, 7, -7, -1), 1, 7.730238808914666)
((-1, -2, -4, -2, -2, -5, -5, -2), 1, 7.749618121264958)
((-3, -2, -3, -3, -1, -4, -1, 3), 1, 7.774739726621011)
((-2, -1, -1, -1, -1, -3, -4, -2), 1, 7.795455543271323)
((-1, -3, -1, -4, 0, -2, -12, -3), 1, 7.817217071903817)
((-2, -2, -3, -4, -4, -7, -3, -9), 1, 7.836991519697759)
((-1, 0, 0, 0, 1, 4, -3, 2), 1, 7.858979410193354)
((-4, -3, -3, -4, -3, -5, -6, -3), 1, 7.8786717519210825)
((0, -2, -4, 2, -2, -4, -4, 4), 1, 7.898705632077015)
((-1, 0, -3, -3, -2, -3, 10, 21), 1, 7.918728678793657)
((-3, -1, 0, -4, 0, 1, -5, 4), 1, 7.939118351903178)
((0, -1, -2, -9, -1, -3, -4, -4), 1, 7.959278242063508)
((-2, -3, -4, 1, -1, -2, 5, -2), 1, 7.978009258599328)
((-1, -1, -1, -3, -4, -1, -13, -11), 1, 7.999069464582921)
((1, 1, -1, -5, -1, 3, 27, 7), 1, 8.023109436552822)
((-1, -2, 0, 3, 1, 1, -2, -9), 1, 8.042185412602938)
((-1, -1, -2, -3, -1, -3, -12, -3), 1, 8.062629823089937)
((-1, -1, 0, 0, -1, 4, -9, 2), 1, 8.082152250875085)
((-1, -2, -3, -4, -2, -2, -16, -11), 1, 8.101623932549867)
((-2, -3, -5, -2, -3, -6, -17, -9), 1, 8.123713885447213)
((-4, 0, -1, -6, -4, -4, 3, 8), 1, 8.144019741947476)
((0, -1, 0, 1, -2, 2, -8, -2), 1, 8.164248624010664)
((-1, 0, -6, -3, 0, 0, -2, -10), 1, 8.183616532740649)
((-2, 0, -4, -7, 1, -4, -2, -1), 1, 8.203422910671451)
((0, -2, -3, -6, -6, -3, -27, 0), 1, 8.227943545237306)
((-1, -3, 1, 3, 0, -5, -5, -4), 1, 8.24705544269139)
((-2, -2, -5, -9, -2, -1, 8, -6), 1, 8.2656079925694)
((-1, -1, 0, 1, -2, 0, 5, -4), 1, 8.284974190756339)
((-2, -3, -1, 1, -1, 0, -5, 4), 1, 8.30324735193682)
((-2, -1, -3, -4, -1, 2, 4, -2), 1, 8.326114461558111)
((1, 2, 2, 2, 7, 13, 5, 3), 1, 8.345763469528672)
((-3, -4, -2, -3, -5, -8, -8, -6), 1, 8.364147816007147)
((-2, -1, 0, -1, 0, 0, 11, 3), 1, 8.38323177459148)
((-4, -4, -2, 0, 0, 3, -5, -14), 1, 8.402263846703413)
((-2, 0, -1, -3, -2, -1, 7, 1), 1, 8.421923688113266)
((0, -2, 0, -1, -5, -11, -6, -11), 1, 8.4419353312096)
((0, -2, 0, 1, -2, -3, -15, -3), 1, 8.459856120522582)
((-1, 0, -3, -6, -1, -3, 6, 9), 1, 8.479334644369548)
((-4, -1, -3, -1, -3, -1, -3, -5), 1, 8.49694297448611)
((-3, -2, 1, 1, -2, 2, 8, -4), 1, 8.517316682527202)
((0, -2, 0, 4, 0, 1, 0, 2), 1, 8.540622831530326)
((0, -1, -1, 0, -1, -1, 2, -5), 1, 8.56061337792909)
((-2, -2, -2, -8, -4, -1, 17, -5), 1, 8.580018348425074)
((-2, -2, -4, -10, -6, -6, -13, 2), 1, 8.599827577260953)
((0, 1, -1, -3, 0, -1, 7, -2), 1, 8.61905864254725)
((-2, -2, -7, -3, -3, -2, 5, 0), 1, 8.645136441466072)
((-2, -2, -3, 3, -4, -5, -9, -5), 1, 8.664516894178394)
((-3, -2, -4, -2, -4, -4, -7, -1), 1, 8.683485676197622)
((1, 1, 4, 4, 2, -2, 13, 7), 1, 8.702964200044589)
((-1, -3, -5, -10, -2, -5, -8, -3), 1, 8.724889370628494)
((-2, -2, -3, -2, -1, -1, 7, -2), 1, 8.747810647446245)
((-1, -2, -2, -1, -2, -7, -11, 7), 1, 8.774066913022878)
((-3, -3, -4, -12, -2, -8, -2, -12), 1, 8.796277174114467)
((1, -2, 1, 3, 1, 3, -2, 6), 1, 8.814117567904283)
((-1, 0, -1, -1, 1, -1, -10, -5), 1, 8.835683524448507)
((-3, -2, -2, -4, -2, -1, -8, -1), 1, 8.855522402697185)
((-2, -2, 2, 2, -1, 3, 4, -4), 1, 8.872446515595305)
((-2, -2, 2, 2, -1, 3, 4, -4), 0, 8.873676396045452)
((-2, -2, 2, 2, -1, 3, 4, -4), 0, 8.874755178526527)
((-4, -3, -4, -5, -3, -4, 2, -4), 0, 8.875764969104742)
((-4, -3, -4, -5, -3, -4, 2, -4), 0, 8.876651030402622)
((-4, -3, -4, -5, -3, -4, 2, -4), 0, 8.877454985634289)
((-4, -3, -4, -5, -3, -4, 2, -4), 0, 8.878278897201495)
((-4, -3, -4, -5, -3, -4, 2, -4), 0, 8.879046360848179)
((-4, -3, -4, -5, -3, -4, 2, -4), 0, 8.879809833227755)
((-4, -3, -4, -5, -3, -4, 2, -4), 0, 8.88066453456979)
((-4, -3, -4, -5, -3, -4, 2, -4), 0, 8.881711386914004)
((-1, -3, 0, 2, -1, 1, 6, -3), 0, 8.88291047758932)
((-1, -3, 0, 2, -1, 1, 6, -3), 0, 8.883683072865143)
((-1, -3, 0, 2, -1, 1, 6, -3), 0, 8.884437992529488)
((-1, -3, 0, 2, -1, 1, 6, -3), 0, 8.885296114957615)
((-1, -3, 0, 2, -1, 1, 6, -3), 0, 8.886088666568975)
((-1, -3, 0, 2, -1, 1, 6, -3), 0, 8.887195958100818)
((-1, -3, 0, 2, -1, 1, 6, -3), 0, 8.888494830453824)
((-1, -3, 0, 2, -1, 1, 6, -3), 0, 8.889767474480124)
((-1, -3, 0, 2, -1, 1, 6, -3), 0, 8.890708843336494)
((-1, -3, 0, 2, -1, 1, 6, -3), 0, 8.891873152969874)
((-1, -3, 0, 2, -1, 1, 6, -3), 0, 8.892679959106617)
((-1, -3, 0, 2, -1, 1, 6, -3), 0, 8.893676635521478)
((-1, -3, 0, 2, -1, 1, 6, -3), 0, 8.895028534708914)
((0, -2, 1, 3, 0, 5, 8, 0), 0, 8.900997189577776)
((-1, -2, -4, 3, -4, -4, -5, -1), 0, 8.902283517948444)
((-1, -2, -4, 3, -4, -4, -5, -1), 0, 8.904806568941442)
((0, -2, -3, -12, 0, -1, 0, -1), 0, 8.906843255528333)
((1, 1, -1, 2, -4, -10, -10, -5), 0, 8.908001863351558)
((1, 1, -1, 2, -4, -10, -10, -5), 0, 8.909089198547862)
((1, 1, -1, 2, -4, -10, -10, -5), 0, 8.911160666176691)
((-3, -2, -4, -7, -1, 5, -7, -1), 0, 8.924376891931882)
((0, 0, 0, -3, 2, 10, -1, -3), 1, 8.946109911513608)
((-2, -3, -4, -9, -3, -9, -12, 9), 1, 8.964369958530735)
((-2, -1, -1, 3, -1, -1, -12, -1), 1, 8.982646540797306)
((-1, -1, 0, 5, -1, -4, -7, -5), 1, 9.002786474622098)
((-3, -1, -1, -4, -3, 0, 11, -2), 1, 9.02595635036255)
((-1, -1, 2, 2, -4, -5, -11, -4), 1, 9.046732606200491)
((-2, 0, -1, 2, 0, 4, 10, 1), 1, 9.066087400767122)
((-2, -1, -1, 0, -3, -2, 2, -3), 1, 9.087206905576313)
((0, -2, -3, 2, -1, -7, -1, 0), 1, 9.106924905449732)
((-1, 0, -2, 0, 1, 1, -8, 2), 1, 9.127844846903546)
((0, -2, 0, 9, -3, -10, -7, -9), 1, 9.15024269754919)
((-2, -2, -2, -7, -3, -9, -7, 1), 1, 9.169174987983435)
((-2, -1, -1, -2, 3, 1, -5, 1), 1, 9.189085709040048)
((-1, -1, -2, -1, 1, 2, -7, -5), 1, 9.209000991544785)
((-3, 0, -2, -10, 0, 1, -4, 2), 1, 9.22899780993472)
((-2, -2, 0, 0, -3, -4, 2, -3), 1, 9.250421791406117)
((-1, 1, 2, 1, -3, 0, -3, 3), 1, 9.269062719341509)
((0, -3, -3, -7, 1, 2, 8, -7), 1, 9.288836026773419)
((-1, -2, 2, 4, -1, -1, -5, 18), 1, 9.30828433102657)
((0, -3, -3, -3, -1, 1, -12, -2), 1, 9.328494967297267)
((-2, 1, -4, -2, -1, 1, 6, -1), 1, 9.35004153768697)
((1, 0, 1, 5, -1, 0, 2, 1), 1, 9.371970699537982)
((-3, -1, 0, 1, 0, -4, -6, 12), 1, 9.391526197822023)
((-4, -3, -3, -1, 0, -1, -3, -11), 1, 9.411692930154537)
((-1, -2, -2, -4, -1, 3, 21, -10), 1, 9.43138470170125)
((-3, -2, -2, -4, -2, -2, 0, -3), 1, 9.455990293238395)
((-2, -3, -3, -7, -1, -1, 1, -2), 1, 9.475443729120684)
((1, -1, 0, -13, -2, -2, 3, 16), 1, 9.494077244702876)
((-1, -1, -2, -3, -3, 1, 11, 1), 1, 9.512894358572016)
((-1, -1, -1, -3, -3, -2, -10, -4), 1, 9.53184147371266)
((-1, -3, -3, 0, -1, -1, -19, -8), 1, 9.557470540172389)
((-3, -1, -3, -8, -3, 1, -4, -2), 1, 9.57639940952054)
((-2, -2, -2, 3, -3, 0, -11, -5), 1, 9.595944074365288)
((-2, -1, -2, -4, -2, 3, -4, -4), 1, 9.614960181408792)
((-1, -3, -3, 1, 0, -3, 2, -3), 1, 9.633467686986588)
((0, 0, 1, 10, 6, 4, 13, 23), 1, 9.655670535724976)
((-1, -2, -3, -5, -4, -5, 0, -6), 1, 9.674763617205555)
((0, -1, 0, -8, -2, -4, 3, 0), 1, 9.694058542765571)
((0, 1, 0, 0, -2, 1, 21, -2), 1, 9.713604918153367)
((-1, -2, -1, 4, -2, -4, -5, -5), 1, 9.733402173187923)
((-1, -1, -1, -2, -1, 0, -8, -5), 1, 9.75713367722851)
((-3, -2, -2, 0, 0, -1, 5, -3), 1, 9.778997268262755)
((-1, -2, 0, 0, 4, 4, 1, 0), 1, 9.799563697487041)
((-3, -1, 0, 0, 0, -2, 1, 1), 1, 9.82280769675949)
((0, -2, -3, -8, -5, -6, 5, 0), 1, 9.842233763953042)
((-1, -1, -1, -5, 0, 8, 7, 1), 1, 9.862594928011795)
((-2, -3, -4, -8, -3, -4, 8, 2), 1, 9.882377928520967)
((-1, -1, 0, -1, -2, 2, 2, 2), 1, 9.904251212632474)
((-2, 0, -2, -3, -4, -5, -16, -10), 1, 9.924129433371212)
((-1, -2, 1, 2, 0, -4, -2, -1), 1, 9.944017347187211)
((0, -1, 0, 4, -1, -2, -11, 0), 1, 9.964095131281328)
((-2, -2, -2, -4, -4, -4, -4, -3), 1, 9.984042343922924)
((2, 1, -2, -2, 3, 12, 17, 8), 1, 10.004267234719006)
((-3, -1, -5, -19, -4, 0, -2, -13), 1, 10.02630587132497)
((-1, 1, 1, 2, -1, -3, -1, -6), 1, 10.046567823887049)
((0, 0, -1, 1, 2, 3, -1, -5), 1, 10.069777612298576)
((0, 0, -1, -1, 3, 5, -1, 1), 1, 10.088744683774758)
((-1, 0, 0, 3, 0, 2, 14, 12), 1, 10.10839825319344)
((-2, -1, -1, 3, -1, -1, -8, -2), 1, 10.127186858011813)
((-3, -1, -2, -2, -2, -3, 1, 0), 1, 10.14534598298922)
((-2, 1, -1, -1, -2, -8, -7, -5), 1, 10.167685104990282)
((-3, -1, -5, -16, -3, -5, 0, 7), 1, 10.187955610267592)
((-2, -3, 0, -2, -2, 2, 10, -1), 1, 10.206485923086003)
((2, 1, 2, 3, -2, 0, -15, -1), 1, 10.225957604760783)
((2, 1, 2, 3, -2, 0, -15, -1), 1, 10.243473565552856)
((-3, -2, -5, -7, -17, -4, 19, -7), 1, 10.266136550370646)
((-2, -1, -1, 3, 9, -4, -25, -7), 1, 10.288753350526191)
((-3, 0, -2, 0, 7, -5, 0, 1), 1, 10.308698282443727)
((-1, -1, 3, 7, -3, -6, 12, 6), 1, 10.327124252136326)
((-1, -2, -1, 3, 1, -4, 0, 0), 1, 10.34597272596131)
((0, 0, -2, -4, 10, 10, 8, 1), 1, 10.366579067856673)
((1, 2, 4, 7, 7, 11, -4, -6), 1, 10.391022157804437)
((-2, -1, -1, 0, 2, -6, 2, -4), 1, 10.41005936154551)
((-1, -1, -2, -6, -8, 0, 4, 3), 1, 10.428832571476466)
((-1, -3, 1, -4, -9, -7, -12, -6), 1, 10.448017452100519)
((-1, 0, 2, 5, 4, 8, -2, -5), 1, 10.467176104397863)
((-2, -2, -1, 1, 5, 0, -5, 2), 1, 10.48929798743207)
((-1, -3, -3, -4, 16, 3, -10, -5), 1, 10.509364938086895)
((-3, -5, -3, -21, 10, -1, -2, -4), 1, 10.528646179302543)
((-2, -3, -3, -6, -20, -5, 4, 3), 1, 10.54934032907427)
((-2, -1, -3, -6, 15, -8, -2, -3), 1, 10.568748150475331)
((-2, 0, -5, -9, -41, -15, -8, -2), 1, 10.590677882507359)
((5, 1, 12, 24, -22, 20, 11, 21), 1, 10.611535104049482)
((8, 76, 16, 12, 56, 1, -7, -75), 1, 10.631497711578495)
((-10, -22, -17, -19, -66, -18, -13, -14), 1, 10.65398793154863)
((4, -1, 9, 20, 31, 13, 12, 19), 1, 10.674123874106312)
((3, 8, 2, 4, -12, 3, 4, 8), 1, 10.69251791366205)
((-4, -12, -9, -23, -56, -14, -7, 16), 1, 10.70984229363296)
((-1, 13, 0, -1, -64, 4, 1, 10), 1, 10.72954432843795)
((-3, -28, -13, -17, -119, 8, -15, -58), 1, 10.74987755362695)
((13, 6, 6, 22, 31, 6, 4, -1), 1, 10.776384698850345)
((-7, -17, -5, -18, -55, -28, -7, -8), 0, 10.796302832260158)
((1, 6, -4, -11, 30, 15, -7, -7), 0, 10.816443336265964)
((10, 0, 7, 13, 62, 16, -3, 41), 0, 10.838099951591632)
((3, 12, 21, 54, 17, 40, 27, 52), 0, 10.856699826493918)
((-10, -9, -9, -13, -19, -9, -17, -10), 0, 10.880985546481442)
((-22, -14, -11, -29, -25, -14, -3, -59), 2, 10.89980266035058)
((-13, -1, -4, -1, -27, -4, -14, -68), 2, 10.919019471111493)
((-5, -12, 4, 13, 111, 26, 2, -27), 2, 10.938608039894426)
((-8, 1, -4, 15, 28, 4, -12, -48), 2, 10.956915411935828)
((6, 3, -6, -18, -8, -25, -19, 45), 2, 10.976242837813722)
((5, 0, 0, -3, 1, 9, 7, 25), 2, 10.998303141298267)
((3, -5, -1, -8, 24, -22, -6, -4), 2, 11.0218248187252)
((-4, 7, 2, -5, -94, 10, 12, -2), 2, 11.041476107419822)
((5, -3, -7, -5, -12, 6, 3, -14), 2, 11.060596557589138)
((-5, -8, -4, -17, -34, -12, -12, -23), 2, 11.080072230531027)
((-9, -1, -4, -5, 2, -30, -20, -8), 2, 11.104891639948935)
((3, 1, 6, 17, 71, 10, 12, -33), 2, 11.125342892608117)
((-7, -4, -2, 2, 10, 13, 5, 21), 2, 11.143462675095462)
((-17, -5, -6, -18, -47, 0, -9, -22), 2, 11.162799794050617)
((3, 3, 4, 13, 7, 9, 2, 4), 2, 11.17944451825121)
((-1, -2, -3, -12, -28, -6, -2, -14), 2, 11.203975416075341)
((6, -4, -7, -18, -121, -11, -9, -40), 2, 11.224146709855978)
((9, -1, -1, -1, 6, -7, 6, -18), 2, 11.243701067777987)
((-2, -1, -2, -1, 49, -19, 1, 34), 2, 11.263163626556523)
((-2, 1, 1, 9, 19, -3, 3, 90), 2, 11.281874686756804)
((-7, 0, -3, -7, 4, -7, -10, -41), 2, 11.30228602674491)
((0, 0, 0, 9, 35, 28, 8, 16), 2, 11.322136878794911)
((-2, 0, -4, -4, -41, -2, -2, 56), 2, 11.343224453467242)
((-6, -4, -9, -21, -49, -9, -5, -40), 2, 11.363228114029361)
((-4, -1, -2, -5, 4, -16, -10, -13), 2, 11.384332223951137)
((-1, -1, -2, 1, -4, 8, 11, 3), 2, 11.406381693996392)
((-3, 1, -1, 14, 73, 17, 5, 2), 2, 11.426512504924938)
((-1, 0, -1, 5, -31, 6, -9, -48), 2, 11.446098222802792)
((-7, -7, -7, -17, -71, -15, -4, -2), 2, 11.467255359559)
((5, 4, 10, 35, 37, 7, 12, -17), 2, 11.488779692889102)
((-5, 1, 0, -2, 27, 0, 1, 12), 2, 11.509175067808778)
((-1, -2, 0, 1, -20, -2, 7, -1), 2, 11.529283071496709)
((-2, 1, 0, 0, 11, -4, 0, -2), 2, 11.55000516013819)
((-2, 1, -3, 0, 23, 4, -4, -1), 2, 11.56968495788358)
((-5, 0, 3, -3, -23, 6, -6, 2), 2, 11.591755524626404)
((1, -1, -3, -2, -12, -8, -5, -19), 2, 11.613366525470841)
((1, 4, 7, 19, 60, 15, 21, -3), 2, 11.631716661088396)
((2, -2, -6, -13, -28, 1, -2, 43), 2, 11.652438749729876)
((-2, -3, -6, -12, -24, -9, -8, -18), 2, 11.671068844225976)
((-2, -3, -6, -11, -43, -8, -10, -15), 2, 11.689589463967126)
((3, 2, 4, 6, 14, 2, -5, -3), 2, 11.712907586771573)
((0, 1, -1, -1, -18, -1, 9, 82), 2, 11.73163005059216)
((-16, -2, -2, -11, -41, -9, -18, -95), 2, 11.754875760407657)
((-2, -1, -5, -9, -37, 0, -6, -23), 2, 11.778929416721926)
((-3, 1, -1, 5, 19, 6, 2, 1), 2, 11.798775137142789)
((-7, 0, -1, 1, 54, 13, -4, -53), 2, 11.819106081607728)
((2, -1, 0, -5, -43, -8, 12, 14), 2, 11.839952469710559)
((-4, -1, 1, 0, 5, 1, -4, 6), 2, 11.858520414475983)
((-1, 0, 1, 4, -9, -7, -4, -5), 2, 11.878894122517076)
((-7, -5, -6, -4, 4, -3, -6, -76), 2, 11.901122629401156)
((3, 0, 2, 1, -31, -13, -5, 2), 2, 11.921799103561408)
((1, -2, -4, -2, -40, 0, 0, 24), 2, 11.941555875743873)
((-6, -4, -7, -4, 22, -2, 9, 17), 2, 11.960302857348122)
((-2, -1, -3, -10, -29, -15, -9, 2), 2, 11.980644065071338)
((0, 1, 4, 7, 20, 5, 1, 9), 2, 12.002045809483137)
((0, -1, 1, -3, -36, -3, 11, 14), 2, 12.024199622654203)
((-3, 0, 1, 5, 44, 5, 7, 13), 2, 12.043848060443748)
((-1, -3, -7, -12, -39, -4, -10, -21), 2, 12.062766666533625)
((1, -2, -1, -2, 32, -4, -2, -29), 2, 12.081430971890645)
((-3, -2, -4, -5, -7, -8, -5, -18), 2, 12.10190161070435)
((-2, -4, 1, -5, -39, 1, 0, 0), 2, 12.12631220033424)
((-2, -1, -6, -2, 42, -9, -10, -10), 2, 12.146059849620459)
((-4, -3, -4, -9, -53, -7, -13, -40), 2, 12.165449425229028)
((0, 0, 0, -2, 6, -2, -1, 3), 2, 12.185243829358507)
((-1, -4, -6, -16, -98, -8, -10, -20), 2, 12.20457980795163)
((-2, -3, -4, -7, -42, -11, -8, -16), 2, 12.22745946155526)
((-1, 0, -1, -2, 22, 0, -1, 6), 2, 12.246707632272017)
((0, -2, -5, -1, 28, -4, -3, 4), 2, 12.268709777292997)
((-1, -5, -3, -8, -22, -10, -13, -98), 2, 12.289077783523936)
((2, 1, 6, 9, 41, 3, 7, 2), 2, 12.30973544171068)
((-2, 1, -1, 3, 8, 6, 5, -36), 2, 12.329832041778303)
((-4, -3, 0, -1, -36, -6, -9, -15), 2, 12.351266286507977)
((-2, 0, 2, 1, -10, -1, 0, 15), 2, 12.371673635228976)
((-3, -3, -4, 1, 68, -12, -2, 6), 2, 12.391395626369503)
((-5, -2, 1, 2, 6, -1, -3, -6), 2, 12.41029313576181)
((4, -2, 0, -1, -42, -1, 8, 57), 2, 12.430815661047912)
((-4, -1, -2, -2, 8, -11, -8, -25), 2, 12.451264632983033)
((3, 2, -2, 0, -4, 5, 3, 2), 2, 12.46999964078596)
((-2, -2, -4, -6, -48, 5, 1, -15), 2, 12.488661095237905)
((-3, -1, 4, 13, 101, 4, -6, -18), 2, 12.506962765469153)
((3, -1, -7, -13, -59, -10, 11, 21), 2, 12.528229947161325)
((1, -1, 0, -5, -27, -9, -3, -6), 2, 12.546864032924532)
((-7, 1, 2, 8, -63, 6, 6, 7), 2, 12.567090064082644)
((0, -3, -5, -12, 2, -7, -3, -5), 2, 12.58686166097151)
((1, 0, -1, 2, 61, -2, -1, 0), 2, 12.606111542231313)
((-2, -5, 0, -7, -22, -8, -8, -24), 2, 12.62899632746408)
((-4, 3, 5, 12, 42, 10, 5, 4), 2, 12.651062902939797)
((-3, -1, -3, -2, 6, -5, -1, 8), 2, 12.670411995696274)
((-2, 0, -4, -2, 1, -4, -10, -9), 2, 12.690357497794825)
((1, -2, -2, -5, -44, -3, 1, 17), 2, 12.710796776652684)
((-1, 1, 2, 3, 22, 8, 8, 0), 2, 12.736441237999827)
((-1, -2, -3, 1, 58, -4, -6, 0), 2, 12.75937962024804)
((-4, -4, -6, -12, -41, -7, -4, -16), 2, 12.77980521476153)
((-3, -3, -3, 0, 22, 3, 14, 6), 2, 12.8003858985112)
((-4, -3, -3, -8, -42, -4, -7, 1), 2, 12.821192373942957)
((-3, 0, -4, -14, -40, -8, -1, 13), 2, 12.84358167187337)
((-1, 1, 5, 12, 108, 7, 1, -5), 2, 12.861866236674157)
((-2, -3, -5, -4, 14, -3, -2, 6), 2, 12.881641254649113)
((-3, 0, 3, -4, -45, -3, -2, -7), 2, 12.900789073507166)
((-1, 1, 1, 14, 59, 8, 7, -7), 2, 12.919379825513206)
((2, -2, 2, 2, -7, 5, 2, 17), 2, 12.939588751240857)
((2, -2, -3, 0, -21, -8, -2, 26), 2, 12.95876850023577)
((-7, -5, 0, -4, 2, 1, -4, -59), 2, 12.975940071694561)
((1, 0, -3, -5, -18, -3, -2, -14), 2, 12.99635711349282)
((-3, 1, 0, -8, -36, 1, -6, -6), 2, 13.017979517957565)
((-3, -3, -2, -4, -34, -3, -5, -18), 2, 13.039019197424606)
((0, -4, -4, -6, -35, -9, -4, 20), 2, 13.057603107258462)
((0, -1, -2, -2, -16, 3, 1, 5), 2, 13.077518389763197)
((2, -2, -1, 1, 4, -2, -6, -15), 2, 13.095882779906137)
((-2, 0, -3, -4, 21, 1, -1, 0), 2, 13.118832565774657)
((-1, -2, -4, -3, 24, -1, 1, -10), 2, 13.140313565347592)
((1, -3, 3, -5, -17, -2, 2, 8), 2, 13.160386787993584)
((-4, -3, -2, 3, -3, -3, 2, 7), 2, 13.181510284069883)
((-5, -1, 0, -2, 12, -1, -2, 2), 2, 13.203253566909886)
((0, -2, -4, -14, -50, -8, -4, -2), 2, 13.222941917370507)
((-3, 0, -2, -2, -21, 1, -8, -4), 2, 13.243939973623426)
((-2, -2, -1, -3, -12, -2, -2, -10), 2, 13.266100628966678)
((-4, 1, 0, 2, -9, -1, -3, -15), 2, 13.285925822870986)
((-4, 1, 0, 2, -9, -1, -3, -15), 2, 13.30530000359214)
((-5, -3, -4, -13, 5, -6, -5, -33), 2, 13.324954143191839)
((2, -2, -3, 2, -24, -5, -4, -16), 2, 13.346816023683038)
((1, -3, -3, -7, -37, -2, -1, 14), 2, 13.366602445278302)
((1, 2, 3, 12, 54, 15, 0, -39), 2, 13.386278251756584)
((0, 0, 0, -6, -16, -6, -1, 20), 2, 13.405625633970017)
((-3, 0, 0, 3, -9, 2, 2, -4), 2, 13.424064717825969)
((1, -1, -1, -2, -12, -4, -2, 5), 2, 13.447636571182253)
((-2, -2, 0, 5, 1, -7, -2, 0), 2, 13.466799784927721)
((-2, -2, -3, -1, 11, -6, -3, -28), 2, 13.486219009949089)
((6, 2, 3, 8, 32, 0, 2, 31), 2, 13.50623464431253)
((0, -2, -5, -9, -53, -8, -6, -9), 2, 13.52538531407566)
((-1, -2, 0, -9, -18, -3, -2, -1), 2, 13.552202637771414)
((-3, -3, -2, -2, 2, -3, -2, -8), 2, 13.57182997886339)
((-1, -1, 0, -3, -21, 1, -5, -26), 2, 13.590156166878298)
((-1, -1, 2, -1, -20, -2, -5, -12), 2, 13.609638681992372)
((-1, -2, -1, -4, 14, -5, -2, -2), 2, 13.628533340479603)
((-3, 0, 2, -5, -22, -5, -2, 3), 2, 13.652401117782862)
((2, 2, 7, 20, 2, 10, 8, 10), 2, 13.67265109654362)
((-1, -1, -3, -8, 25, -7, -3, 4), 2, 13.691257243437073)
((-2, 1, 0, 2, 51, 3, 0, -2), 2, 13.710628003072136)
((0, -3, -2, -9, -24, -5, -1, 4), 2, 13.730210299863899)
((2, -3, -5, -3, -4, -6, -4, 0), 2, 13.754984094800577)
((-11, 4, 4, 1, 18, -1, 1, 32), 2, 13.777043828104109)
((4, -2, 1, 2, -49, 1, -1, -6), 2, 13.796470465478675)
((-1, -2, -1, 1, 9, -3, -4, -16), 2, 13.815654205740696)
((0, 1, 2, 9, 51, 2, 1, 1), 2, 13.834882990302932)
((-5, -2, -5, -7, -37, -4, -5, -13), 2, 13.85650140350057)
((-2, -1, -5, -3, 43, -5, -2, -12), 2, 13.875914356530767)
((4, -3, -1, -9, -58, -5, 0, 13), 2, 13.89477537433809)
((0, -1, 0, -3, -46, -1, -5, -12), 2, 13.915776281496086)
((1, 0, -1, 2, 7, 1, 2, -1), 2, 13.935380245166433)
((-2, -2, -2, -3, 2, -4, -3, 7), 2, 13.956939359538472)
((-2, 0, -2, 5, 19, -1, 0, -9), 2, 13.977093547888648)
((-3, -1, 0, 0, 17, 2, 2, 2), 2, 13.997733530463917)
((1, -1, -1, -1, 11, 0, -1, -3), 2, 14.019339969860232)
((-2, -2, 0, 5, 19, -2, 2, -7), 2, 14.038803098819782)
((3, 2, 3, 5, 8, -1, 0, 20), 2, 14.058120831620414)
((0, -3, -2, -3, -12, -8, -2, 4), 2, 14.077387248129664)
((-13, 1, 2, 7, 69, -1, -3, -2), 2, 14.097564243720454)
((2, -1, 0, 0, 19, 3, 2, -17), 2, 14.115189679267477)
((3, 1, 3, 6, 72, 6, 4, 11), 2, 14.135120926840644)
((-1, -3, -4, -3, -28, -4, -4, -5), 2, 14.154501379552967)
((-1, -3, 0, 0, 21, -4, -3, -2), 2, 14.174919561713256)
((2, 0, -4, -9, -37, -4, -6, -11), 2, 14.194517253392435)
((-4, -2, -4, -3, -6, -6, -2, -9), 2, 14.21424551652413)
((-3, -2, -2, -7, -67, -8, -2, 10), 2, 14.233353992892123)
((-1, -1, -3, -2, -31, 3, 1, -4), 2, 14.25295795656247)
((0, -1, -2, 5, 55, 8, 2, 10), 2, 14.277507100179093)
((0, -2, -2, 7, 88, 3, 1, -4), 2, 14.298444717244383)
((-2, -4, -2, -6, -28, -1, -2, -5), 2, 14.317024065630116)
((-2, -2, -1, -1, 24, -2, -1, 1), 2, 14.33678939052781)
((-1, -1, -1, 2, 9, 3, -4, -23), 2, 14.35787981610522)
((3, -3, -2, -1, 14, -5, -3, -2), 2, 14.38105596383684)
((1, 0, 2, 5, -16, 1, 3, 11), 2, 14.400704401626385)
((-8, 1, 1, -4, -14, -1, -4, -12), 2, 14.419715947221764)
((-2, 0, -1, 1, 27, 4, 2, 19), 2, 14.439088987580888)
((-2, 3, 2, 2, 54, 1, -1, -7), 2, 14.459049314385839)
((-2, -2, -1, -6, 9, -2, -4, -11), 2, 14.480692815548153)
((-3, -3, -7, -11, 20, 2, -1, -3), 2, 14.499837213320113)
((-1, -1, 2, 5, 25, -2, 0, -2), 2, 14.51845419365286)
((0, 0, 0, 3, -8, 5, -2, -23), 2, 14.537452625084885)
((-1, 0, 0, -1, -21, -9, -2, 1), 2, 14.556528601135001)
((-3, -3, -4, -9, 7, -2, -2, -2), 2, 14.58205560519298)
((-1, -1, 0, 0, -5, 5, 1, -2), 2, 14.601690928819172)
((0, -2, -2, -2, -17, -7, -1, -1), 2, 14.620843879306364)
((-3, -4, -3, -7, -2, -6, -4, 2), 2, 14.641396054005265)
((1, -1, -2, -2, -25, 2, 0, -1), 2, 14.661659146929376)
((0, -1, -1, -4, 2, 0, -3, 3), 2, 14.682912074096164)
((2, -3, -3, -2, -20, 3, -3, -16), 2, 14.703266966163747)
((3, -2, 0, 2, 0, 4, 3, 3), 2, 14.722454697692877)
((-3, 0, -4, -5, -10, -1, -2, 1), 2, 14.741548919535484)
((0, -3, -2, -1, -21, 1, 0, 20), 2, 14.769839020793931)
((-3, -1, -1, -2, 4, -2, -3, -9), 2, 14.79141923186354)
((0, -2, -2, -6, -31, -9, -6, -6), 2, 14.811347058350615)
((1, 1, -1, 1, -19, -1, 2, 6), 2, 14.831814846259242)
((-2, -1, 1, 7, -4, -1, -4, -2), 2, 14.851334993320329)
((1, -3, -4, -3, -15, -9, -4, -3), 2, 14.8713814174586)
((-1, 0, 0, 0, 10, 4, 0, 0), 2, 14.892020259671838)
((-1, -2, -1, 2, 48, 7, 0, 9), 2, 14.912160763677644)
((0, -2, -3, -4, -6, -4, -1, 2), 2, 14.93289596648248)
((-2, -2, -3, -3, -21, -5, -4, 0), 2, 14.952837477313922)
((0, 0, 1, -1, -11, -3, -2, -2), 2, 14.97271455769063)
((-2, -1, -3, -7, -23, -5, -1, 15), 2, 14.992392074711958)
((-3, 0, -4, -9, -4, -6, -3, 2), 2, 15.013429473454938)
((2, 0, -2, 1, -14, -8, -3, 9), 2, 15.032762601142984)
((0, -1, -1, -3, 15, 2, 2, -3), 2, 15.051387564009946)
((2, -2, 1, -3, -10, -1, -2, 0), 2, 15.071022317455123)
((0, 1, -1, 1, -12, -1, 0, 1), 2, 15.091213567571296)
((-1, -1, 0, -2, -12, -1, -2, -4), 2, 15.111553634932482)
((-1, -1, -1, 3, -11, 2, -1, -5), 2, 15.132002036686586)
((-4, -7, -3, -10, -15, -11, -5, 1), 2, 15.151023275359229)
((0, 2, 1, 4, 22, 5, 0, -3), 2, 15.171970585501779)
((-5, -4, -2, -1, -8, -7, -6, -11), 2, 15.19604647887565)
((-1, 1, 1, -1, -7, -3, -2, -4), 2, 15.216034174369337)
((0, 1, 2, 11, 31, -1, 2, 5), 2, 15.235234449880803)
((0, -1, 2, -1, 22, -2, 2, 3), 2, 15.253432347167255)
((-2, -1, -3, 0, -13, -1, -3, -1), 2, 15.273401226687437)
((0, -1, -2, -1, -21, -3, -2, 1), 2, 15.296320222781127)
((-2, -1, -6, -12, -12, -1, 0, -1), 2, 15.32107862283039)
((-10, 1, 3, 10, -16, 6, 3, 0), 2, 15.33985639420947)
((-13, -2, -3, -3, 16, -1, 0, -1), 2, 15.358711140025624)
((4, -4, -7, -17, -14, -5, -5, -1), 2, 15.379161252322774)
((-3, -2, -1, -2, -2, -1, -1, -1), 2, 15.40075913900386)
((-3, 0, -1, -1, 4, 2, -2, -1), 2, 15.422123251468644)
((5, 1, 0, 0, -10, -4, -2, 1), 2, 15.441647389796838)
((0, -2, 3, 19, 7, -18, -4, -2), 2, 15.461322626094105)
((3, 2, 2, -1, -2, 9, 5, 0), 2, 15.480018861587988)
((-2, 0, -2, -14, -3, 4, 1, 0), 2, 15.50450186420683)
((-1, 2, 5, 22, 5, -2, 3, -1), 2, 15.524906932203766)
((-3, -4, -5, -37, -3, 4, -4, -2), 2, 15.546344027838519)
((-1, -3, -3, 12, 7, -4, -3, -3), 2, 15.56652558487743)
((-2, -1, -5, -6, -7, -3, -1, 1), 2, 15.587422719090629)
((-2, -1, 3, 25, 5, -5, -4, -4), 2, 15.608714988747478)
((-2, -1, -1, -2, -8, 0, -3, -2), 2, 15.630392130589698)
((-19, 0, 1, 12, 9, -1, 12, 5), 2, 15.650809172387959)
((-32, -4, -11, -10, -13, -1, 1, -3), 2, 15.669860060473399)
((66, -2, -8, 1, -14, 6, 0, 6), 2, 15.687769446166074)
((6, -1, 1, 13, -4, -6, 12, 0), 0, 15.713334082171066)
((5, -2, 0, 22, 6, -12, -2, -4), 0, 15.73485214351)
((-16, -1, 4, 12, -7, 9, -3, -6), 0, 15.758185091020847)
((-8, -2, -1, -6, -1, 4, -6, 0), 0, 15.778728142823502)
((-27, -5, -6, -9, 12, -17, -5, -5), 0, 15.801067835005579)
((20, -3, -3, 1, 36, -10, 3, 3), 0, 15.819889510322842)
((59, 4, -3, -12, -30, 1, -3, -7), 0, 15.840226156597936)
((-34, 19, 5, 2, 25, -10, -2, 25), 0, 15.85814922663498)
((-13, 78, 4, -5, -1, -8, 10, -92), 0, 15.877187000557067)
((85, -25, -4, -11, -11, -8, -6, -19), 0, 15.896956886902885)
((-59, 1, 0, 4, -10, 9, -8, -28), 3, 15.91978180312904)
((-128, -19, -14, -7, -10, -18, -23, -74), 3, 15.938099438428718)
((-10, 69, -3, -13, 23, -48, -34, -21), 3, 15.958192047229234)
((-77, -30, -7, -16, -27, 1, -23, -38), 3, 15.979398219552762)
((-57, -33, -5, -13, -18, 12, 16, -36), 3, 16.001574839964444)
((-51, 17, 16, 41, 66, -2, 14, 89), 3, 16.023724091687388)
((-10, -21, -7, -7, 72, -27, -13, 37), 0, 16.04459499757388)
((-36, -23, -7, -5, 16, 14, 1, -12), 0, 16.0658342403963)
((-53, 5, 9, 15, 1, 1, 20, 14), 0, 16.08884161454737)
((-74, -11, 1, -8, -63, -29, -8, -7), 0, 16.11367470830965)
((86, 10, 4, 10, 58, -4, 0, 4), 0, 16.134514254240294)
((-100, 0, 0, 9, 11, 8, -2, -30), 0, 16.15376755658619)
((46, -3, -13, -23, 26, -3, -9, 2), 0, 16.17217984193442)
((-12, -12, 1, 8, 32, 10, 6, -16), 0, 16.190333835282686)
((-59, 1, 3, -5, 9, -12, -5, 4), 0, 16.212892476974666)
((127, 23, 3, -4, -50, 0, 14, 70), 0, 16.23234249177086)
((-30, -9, -2, 2, 11, 2, -2, -48), 0, 16.25096061246564)
((-23, -1, 1, 1, 22, 0, -5, -11), 0, 16.267884155182745)
((1, -1, 0, 10, 57, 16, 20, 85), 0, 16.28717109820855)
((-39, -36, -13, -14, -17, -5, -17, -113), 0, 16.306699797984866)
((14, -9, -3, -3, -9, -6, -6, -4), 0, 16.3294386168777)
((26, 8, -1, -6, 15, -12, -1, 19), 0, 16.348284809978622)
((1, 4, 0, -5, -50, 3, 0, 11), 0, 16.366817973702112)
((-48, -7, -4, 11, 46, 0, 0, -15), 0, 16.385590043271037)
((-18, 0, -2, -2, 21, -11, 4, 13), 0, 16.40445847343156)
((11, -2, -1, -11, -74, -20, -6, 27), 0, 16.42413713081492)
((-103, -2, 0, -4, -14, 2, -5, -21), 0, 16.446051467959535)
((31, 0, -3, 4, 18, -6, -12, -9), 0, 16.466092760468666)
((2, 0, -4, 2, 6, -9, -4, 17), 0, 16.484906453251714)
((-14, -1, 2, 4, 14, 8, 6, -11), 0, 16.504198527906656)
((-31, -7, -8, 1, 6, -6, -6, 16), 0, 16.52888793605306)
((19, 4, 0, -10, -17, 4, 0, -10), 0, 16.54870172633706)
((19, -1, -1, -5, -10, 0, 1, 21), 0, 16.56872876432081)
((-43, -1, 3, -2, -42, 9, 2, -13), 0, 16.587175830710976)
((47, 9, 1, 7, 12, 5, -2, -30), 0, 16.60612180548959)
((8, -7, -4, -12, 16, -10, -7, -9), 0, 16.629082994978415)
((105, 5, -3, -7, -4, 0, 4, -55), 0, 16.648235945465608)
((45, -3, -5, -16, -10, -16, -9, 15), 0, 16.666643669365712)
((39, 14, 9, 6, -66, 8, 5, 48), 0, 16.68711772926551)
((-23, -9, -6, -7, 4, -4, -4, -23), 0, 16.708878117535974)
((9, 3, 1, 3, 16, 4, 15, 56), 0, 16.73081184083511)
((32, 1, -1, -13, 0, -5, -3, 3), 0, 16.751971828496394)
((-5, 0, 0, 2, 43, 3, -10, -49), 0, 16.776857378912084)
((0, -3, -1, -1, -24, -6, -8, -77), 0, 16.796924329566906)
((62, 2, -3, -10, -13, 4, -1, -49), 0, 16.81618903553311)
((-28, 1, -2, 0, -29, -4, -5, -27), 0, 16.839060706602524)
((-41, -8, -7, -9, 22, -9, -10, -15), 0, 16.859743452753946)
((12, 3, 3, 12, 26, 4, -8, -30), 0, 16.879624524397762)
((0, -6, 0, -3, -4, 8, 0, 1), 0, 16.898534577772406)
((6, 1, 0, 1, -12, 0, 5, 34), 0, 16.91690409954448)
((-29, -3, -5, -4, -16, -6, 1, 20), 0, 16.939230677563206)
((-37, -6, -3, -2, 22, -7, -5, -5), 0, 16.959159074231295)
((-15, -3, -2, -1, 38, 6, 13, 73), 0, 16.97879154695241)
((123, 7, 0, 2, -8, -7, -4, -1), 0, 16.99797699775748)
((-27, -1, 2, -12, -72, -9, -4, 41), 0, 17.017728068129788)
((16, 0, -3, 4, 32, -1, -3, -20), 0, 17.039029460682883)
((0, 5, -2, -5, -34, -7, -5, -9), 0, 17.059179657765952)
((-84, -12, -3, -3, 1, -4, -6, -32), 0, 17.077874752897802)
((-11, -1, -1, 1, -5, 3, 7, -14), 0, 17.09696897474041)
((-33, -4, 3, 17, -5, 5, 3, -7), 0, 17.116621973978077)
((-21, -4, -1, -2, 5, -3, -6, -25), 0, 17.137082349533507)
((-8, 1, 1, -5, -2, -8, -4, -9), 0, 17.158540541865825)
((7, -1, -5, -7, -30, 2, 5, 16), 0, 17.17847349998204)
((-8, 2, 4, 5, 24, 1, -3, -19), 0, 17.196878372977068)
((-14, 1, 0, -4, -7, -4, -2, -50), 0, 17.217150588797427)
((-14, 0, -1, 1, -26, -5, 0, -8), 0, 17.239232559160556)
((-16, -3, -2, 0, 9, -2, -4, 1), 0, 17.261248388525907)
((-21, -1, 1, 4, 10, -1, -5, -32), 0, 17.28060888490269)
((-6, 1, -2, 2, -7, 9, 3, 8), 0, 17.300180918436176)
((-9, -3, -3, -6, 19, -8, -3, 13), 0, 17.31896439162541)
((8, 1, -2, -4, 7, -2, 0, 6), 0, 17.341358251003946)
((-14, 1, -1, -2, -4, 6, -2, -21), 0, 17.362037005888258)
((-11, -6, -1, 3, 16, 0, -16, -89), 0, 17.38315879142151)
((26, 0, -7, -13, -32, -9, -3, -5), 0, 17.400918219507147)
((3, 1, 0, 1, 11, -6, 0, -42), 0, 17.419920072025267)
((-30, -10, -4, -1, -4, 6, -2, -13), 0, 17.44303920165535)
((2, -6, -4, -4, 39, 5, -1, 5), 0, 17.46231017961272)
((-45, 0, -2, 6, 12, -3, -5, -51), 0, 17.481666114541383)
((-6, -6, -1, 1, -4, 0, 13, 55), 0, 17.501971400860633)
((1, -2, 3, 5, -7, -1, 3, 3), 0, 17.519839163339185)
((20, 4, 2, 4, -37, -2, 4, 7), 0, 17.54205626660296)
((-13, -3, -3, -9, -26, -5, 1, 0), 0, 17.561015355544924)
((13, -1, 2, -3, -3, -2, 1, 21), 0, 17.579696766332408)
((-12, -1, -3, -4, -2, -7, -9, -31), 0, 17.599204369411158)
((-4, -1, -1, 9, -2, 4, 2, 0), 3, 17.617204413885275)
((2, -2, -2, -10, -5, -6, -3, 8), 3, 17.643140237731274)
((-3, 5, 2, 8, 34, 6, -4, -33), 3, 17.66278867552082)
((12, -4, -6, -9, -15, -2, -2, 3), 3, 17.68225180448037)
((9, -1, -3, -1, 5, 1, -1, 20), 3, 17.701032426764524)
((0, -2, 0, -13, -17, -6, -5, -2), 3, 17.720371826443742)
((6, -2, 2, -4, -38, -4, -6, -15), 3, 17.741026633725408)
((-16, -2, -4, -6, 3, 1, -4, -4), 3, 17.76985897712947)
((9, 0, 1, 0, 11, -4, -1, -10), 3, 17.788077971113488)
((1, -1, 1, -2, -8, 0, 1, 1), 3, 17.807581012744116)
((0, 0, -3, -5, -1, 0, 0, -1), 3, 17.82685655214961)
((1, 1, 4, 3, 7, 3, 0, -6), 3, 17.85103222720117)
((-1, -3, -8, -28, -4, -3, 0, -3), 3, 17.87008710655372)
((0, 0, -1, 2, -3, -2, 1, 0), 3, 17.890593096590376)
((-3, -4, -6, -23, -7, -4, 1, 9), 3, 17.912387125540747)
((-2, -3, -4, 15, -6, -1, -4, -8), 3, 17.932679867877656)
((-2, -1, 2, -10, -4, -3, -4, -2), 3, 17.95646953038181)
((-1, -3, -3, 3, -2, 0, 0, -1), 3, 17.975018088992712)
((-3, 2, 10, 13, 2, -6, -4, -7), 3, 17.994871221766775)
((-1, 0, -1, -33, -7, 0, 0, 1), 0, 18.01471751236865)
((-3, -2, -2, -5, -5, -1, -1, -2), 0, 18.036000659129254)
((0, -1, -3, 0, 4, 3, 1, -3), 0, 18.062348153668346)
((-3, -5, -7, -5, -17, -9, -7, -2), 0, 18.081369962522)
((1, 0, 5, 0, 7, -6, 1, -2), 0, 18.100984189450624)
((1, 1, 1, 1, -1, -14, -2, -3), 0, 18.119595467973216)
((-2, -3, -5, -17, -6, -5, 0, -3), 0, 18.14211818826123)
((-1, 0, -3, 1, 3, 1, 0, -2), 0, 18.164676829953205)
((-3, -4, -2, -7, -9, -6, 5, 10), 0, 18.18268485696154)
((-2, -4, -10, -10, -8, -3, -7, -8), 0, 18.202144564835)
((-1, -1, 0, 10, 26, 10, 1, -2), 0, 18.22228677938385)
((-1, -1, 0, 10, 26, 10, 1, -2), 0, 18.241632451054237)
((1, -3, -3, -5, 11, -2, -4, -3), 0, 18.266638879845186)
((-21, -1, 0, 5, 5, 5, -1, -7), 0, 18.285300904478145)
((2, -1, -3, 7, -6, -2, 0, 1), 0, 18.30488149072686)
((2, 0, 3, -6, -10, -7, -3, -3), 0, 18.324145056331034)
((-7, -5, 1, 0, 24, -3, -1, 8), 0, 18.341469436301942)
((-11, -4, -5, -6, -11, 6, -4, -16), 0, 18.360111504599367)
((-9, -4, -4, -8, 14, -6, -5, -8), 0, 18.378994189285272)
((11, 0, -1, -3, -2, -8, -6, 5), 0, 18.397778802836537)
((24, 2, 6, 8, -33, -1, 6, 48), 0, 18.416681443857982)
((-3, -3, -5, -5, 7, -5, -4, -15), 0, 18.435971807969874)
((1, 9, 15, 35, 9, 49, 11, -62), 0, 18.457026312143316)
((-12, -6, -5, -12, -6, -14, -10, -22), 0, 18.480118643265676)
((55, 5, 1, 5, -9, -10, 1, 13), 0, 18.49951163996034)
((-59, -7, -6, -10, 5, -13, -4, -14), 0, 18.517973531056903)
((11, 1, 4, 3, -5, -6, -13, -63), 0, 18.536673757817894)
((-29, -9, -2, 1, 24, -10, -6, -28), 0, 18.558967835518743)
((-3, -1, -3, 2, 11, 4, 4, 33), 0, 18.581841787312218)
((-1, -4, -4, -13, -11, 1, 3, 44), 0, 18.60050210140213)
((-13, -1, 0, -1, 9, -5, -1, 5), 0, 18.619755973929042)
((-8, -1, 0, -8, 26, -3, -4, -15), 0, 18.640113716901705)
((8, -2, -3, -5, -3, -8, 1, 34), 0, 18.660213167874407)
((39, 2, -1, -4, 20, 3, 0, 43), 0, 18.682978785274962)
((9, -1, -7, -7, 22, -2, -5, -5), 0, 18.702841611126285)
((-4, -4, -4, 4, -9, 1, 0, 1), 0, 18.72260807638601)
((-15, 1, 4, 4, -7, 1, 0, -9), 0, 18.74058588380053)
((-4, 2, 1, 11, 5, -1, 0, -2), 0, 18.757073808221897)
((-6, 3, -4, -8, -5, -6, -7, -32), 0, 18.781298518840778)
((3, -3, -4, -4, -18, -4, -1, 3), 0, 18.800858008391923)
((13, -2, -1, -4, -14, -5, -3, 14), 0, 18.8229787510641)
((2, -2, -4, 1, -18, -5, -4, -19), 0, 18.84473970951558)
((-14, 1, 0, 0, 10, -2, 1, -2), 0, 18.867302342474666)
((-14, 1, 0, 0, 10, -2, 1, -2), 0, 18.886536828847053)
((1, -3, -5, -4, -11, -4, -4, -8), 0, 18.908492789205788)
((25, 6, 1, -7, 11, -14, -11, -1), 0, 18.928362457229298)
((-7, -5, -1, -4, 4, -1, -8, -57), 0, 18.946276404370096)
((-7, -5, -1, -4, 4, -1, -8, -57), 0, 18.965728699890356)
((-3, -4, -4, -8, 23, 1, 0, 8), 0, 18.985971836478928)
((7, 0, -1, -2, -17, -3, 5, 59), 0, 19.005165839999226)
((7, 0, -1, 0, -27, -1, 0, -6), 0, 19.026312713497155)
((1, -1, -6, -5, 7, -4, -7, 2), 0, 19.046488568725913)
((9, -1, 1, -2, 15, 4, 4, -3), 0, 19.06438826134133)
((-2, -1, -2, -7, -13, -1, 0, 0), 0, 19.08652097781483)
((-4, -1, -1, 0, 8, 5, 1, -5), 0, 19.10616200325117)
((22, 5, 1, 2, -19, 3, 13, 69), 0, 19.124839422771547)
((15, 4, 2, 9, 21, 2, 1, -5), 0, 19.144859048402097)
((1, -3, 1, 1, -2, -2, -3, -20), 0, 19.16361800380767)
((1, -1, 2, 2, -12, -2, -3, -8), 0, 19.18747836875773)
((0, -4, -4, -7, -1, 1, 0, -3), 0, 19.20718154392475)
((0, -1, -1, -3, 2, -1, -4, -11), 0, 19.227242222588405)
((-1, -1, 0, -1, -1, 6, 2, 0), 0, 19.24712329423222)
((2, -1, -2, -7, 2, -4, -1, -5), 0, 19.267266649143103)
((-2, 3, 4, 22, -4, 2, -1, -7), 0, 19.29421511447239)
((2, 1, -3, -14, -6, -4, 0, -3), 0, 19.3143259690654)
((-2, -2, -1, 19, 4, 3, -1, -2), 0, 19.333332383031642)
((0, -4, 1, 13, -5, -5, -3, -1), 0, 19.355344221129883)
((-3, -6, -8, -8, -7, -8, -4, -2), 0, 19.3755223570827)
((-3, 0, 9, 48, 9, 6, 0, 2), 0, 19.40042159184276)
((4, 1, 2, 2, 26, 5, 2, 0), 0, 19.41955173508934)
((10, 1, -5, -37, -16, -1, -1, 2), 0, 19.439619826106195)
((10, 1, -5, -37, -16, -1, -1, 2), 0, 19.45724982310134)
((-7, -2, -8, -43, -2, -8, -3, -1), 0, 19.47810989554854)
((-1, 0, 6, 2, 6, 0, -3, -1), 0, 19.499813835898482)
((5, -1, 0, -10, -3, -1, 1, 0), 0, 19.518788319727864)
((-1, -3, -6, -18, 3, -5, -4, 0), 0, 19.537782189711766)
((-3, -1, -1, -3, -9, -2, -4, -1), 0, 19.556157413294)
((0, 1, 1, -3, 4, 4, 1, -1), 0, 19.575313784867284)
((-3, -4, -9, -26, -5, 5, 1, -1), 0, 19.596773117561632)
((-4, -4, -4, 0, -7, -10, -4, -5), 1, 19.61626589593398)
((0, -2, -4, -1, -5, -4, 0, 1), 1, 19.635345863251207)
((1, 1, 6, 26, 6, 7, 2, 1), 1, 19.65645282407806)
((1, 1, 6, 26, 6, 7, 2, 1), 1, 19.67516274391631)
((5, -3, 0, -13, -5, -12, -4, -4), 1, 19.696408828910915)
((-2, -4, -5, -6, -5, -34, -41, -8), 1, 19.7152276533231)
((-12, -2, -1, -2, 1, -14, 33, 88), 1, 19.733528753373335)
((-26, -15, -9, 3, -40, 90, 27, -128), 1, 19.758706806649908)
((-29, 22, 6, 2, -47, -72, -1, 7), 1, 19.77925270935764)
((-38, -9, 0, -2, -22, 13, 3, -95), 0, 19.798294474546836)
((-7, 5, 2, -14, 3, -69, -18, -59), 0, 19.818531339144236)
((95, 21, 10, 11, 26, 28, 2, 47), 0, 19.83845460418319)
((-63, -11, -6, -4, -1, -14, -18, -13), 0, 19.856856056092127)
((14, -10, -13, -25, 50, 10, 3, 18), 0, 19.874983250932672)
((-22, 0, -1, 4, 5, -18, 1, 37), 0, 19.896383284801427)
((-20, -1, -5, -4, -14, 26, 17, -14), 3, 19.916910941716665)
((2, 2, 3, 6, 5, 24, 0, -7), 3, 19.935445245802185)
((3, 0, 5, 10, 28, 10, -4, -2), 3, 19.95648207436415)
((8, 3, -2, -3, -36, -5, 9, 54), 3, 19.976639113619402)
((-26, -5, -1, 5, -9, -11, 5, -35), 3, 19.99486437959459)
((-9, -1, -2, -2, 8, 4, -5, -1), 3, 20.016568319944533)
((3, -1, 0, 1, -15, -13, -2, 16), 3, 20.038776870493077)
((60, -1, -2, 4, 17, -4, -6, -26), 3, 20.057387578834653)
((37, -4, -3, -3, -50, 16, 9, -60), 3, 20.0774887403504)
((-28, -7, -5, 2, 38, -1, -4, -16), 3, 20.101100506377758)
((7, -1, -3, -5, -7, 0, -9, 19), 3, 20.12344818109405)
((-16, -3, -3, -6, 13, -4, -8, -38), 3, 20.14365026464952)
((-7, 0, -1, 0, -12, -2, 1, 4), 3, 20.164068446809807)
((2, 0, 1, -2, -3, 3, 2, 7), 3, 20.183162668652418)
((1, 0, -2, -1, -1, -4, -7, -8), 3, 20.206265833214072)
((-5, -4, -2, -3, 4, 1, -2, -10), 3, 20.22601462286232)
((-7, -3, -3, -6, 18, -3, -4, -58), 3, 20.24617451302265)
((10, 0, 1, -1, -24, 1, 5, 23), 3, 20.264028591156833)
((-3, -3, 2, 0, -72, 8, 6, 20), 3, 20.28249675424457)
((-16, -1, 0, 1, -10, -1, 3, 12), 3, 20.303847752546)
((-20, 2, 0, -2, -6, -2, 1, 10), 3, 20.323408952640193)
((6, -1, 5, 4, 11, 2, -1, -9), 3, 20.34257102602363)
((2, -1, -3, -5, -6, 0, 1, -4), 3, 20.36123590156167)
((-13, 0, 0, 0, -23, 0, 4, 4), 3, 20.381850225991247)
((-13, 0, 0, 0, -23, 0, 4, 4), 3, 20.400495145193744)
((62, 5, 3, 6, 43, 11, 9, 56), 3, 20.421626623804258)
((-20, -3, -4, -3, -1, -6, -6, -19), 3, 20.441767127810067)
((-26, -6, -5, -1, -6, 1, -2, -7), 3, 20.461739998597356)
((-4, -4, -1, -2, 1, -2, -2, -14), 3, 20.48261945719908)
((-12, -3, -7, -2, -3, -3, -1, -6), 3, 20.506922852798077)
((16, 3, 0, -4, -15, 5, -2, -3), 3, 20.527739021307095)
((-44, -4, 1, 7, -1, 1, -11, -89), 3, 20.54758189082288)
((-6, -3, 1, 4, -9, 4, 2, 15), 3, 20.570614923119642)
((-1, -1, 2, 3, 14, 3, 8, 37), 3, 20.59157876851164)
((-1, -1, 2, 3, 14, 3, 8, 37), 3, 20.609978509877532)
((84, 5, 3, 3, 1, -6, -6, -10), 3, 20.62970392210415)
((-28, -4, -2, -4, 3, -1, -4, -8), 3, 20.648627089642147)
((49, 4, 2, -3, -18, 1, 2, -24), 3, 20.66699490087118)
((-3, 1, -3, -2, 14, 0, 0, 11), 3, 20.685757277362843)
((-18, -3, -3, -2, -16, -2, -3, -10), 3, 20.70684428185416)
((-26, -2, -1, 3, 5, 1, 1, 6), 3, 20.72747913280029)
((-12, -4, -2, 1, 11, -5, -2, -6), 3, 20.752758108116584)
((-33, -1, 0, -5, 20, -3, 1, 1), 3, 20.775551664386892)
((-33, -1, 0, -5, 20, -3, 1, 1), 3, 20.792637138512365)
((5, 2, 5, 3, 15, 2, 0, -7), 3, 20.81505950694167)
((1, -2, 0, -1, -12, 0, -3, -13), 3, 20.83453460970254)
((5, -2, -6, -3, -5, -1, -1, 26), 3, 20.8544692783618)
((54, 2, 0, 5, 18, 11, 5, 51), 3, 20.87304406529941)
((-20, 0, -2, -5, -11, -10, -3, 7), 3, 20.89288978572027)
((4, -1, -4, 3, 7, 2, -1, -12), 3, 20.91298695596891)
((-4, 4, 4, 2, -7, 1, 2, -4), 3, 20.932633113034395)
((-9, 1, 0, -2, -6, -1, -1, -7), 3, 20.95450297605981)
((-1, 3, -2, 3, 14, 4, 0, 0), 3, 20.97444391671024)
((-8, -3, -3, 1, -6, 1, 3, 29), 3, 20.99422691721941)
((-5, -3, -7, -4, -16, -2, -7, -19), 3, 21.014423869145737)
((5, 0, -2, -1, 9, -3, -4, -19), 3, 21.040786188391227)
((-4, -4, -6, -5, 25, 0, 3, 24), 3, 21.060349099028468)
((-12, -2, -1, -3, -7, -11, -7, -9), 3, 21.07903678180712)
((1, -1, 0, -2, 0, 1, 2, -2), 3, 21.09723467909357)
((-14, 2, -1, -1, 1, -1, -1, -4), 3, 21.116679562260632)
((5, -2, -2, -3, 16, 0, -3, -11), 3, 21.140998352747047)
((9, 2, 2, 2, 3, -2, -2, 9), 3, 21.160589772435056)
((2, -6, -8, -8, 2, -5, -2, 2), 3, 21.17838854301075)
((-15, 0, 0, 4, -11, 0, -1, 12), 3, 21.199175062106967)
((-15, 0, 0, 4, -11, 0, -1, 12), 3, 21.219380566748526)
((-18, -3, -3, -3, 0, 2, 1, -11), 3, 21.240135725888898)
((24, 4, 4, 2, -1, 4, 2, -2), 3, 21.26029276514415)
((23, 3, -3, -2, -38, -5, -3, 1), 3, 21.27883790266896)
((-1, -6, -2, -2, 9, -3, -3, 3), 3, 21.299991618339075)
((-29, -1, 0, -1, 6, -1, -7, -40), 3, 21.32260841849462)
((-2, 1, 1, 1, 7, 1, -3, -11), 3, 21.34312524197057)
((2, -3, -1, -2, -12, -2, 0, -1), 3, 21.36268701224578)
((2, 3, 4, 2, 7, 5, 4, 27), 3, 21.382515057055162)
((4, -2, -4, -3, 4, -3, 0, -3), 3, 21.40301135401456)
((-17, -3, 0, -7, 8, -9, -5, 12), 3, 21.423760241163762)
((-13, -1, -6, -8, 7, -9, -6, -13), 3, 21.445966510988242)
((7, -2, 0, 0, 9, -2, 1, 4), 3, 21.46407660039833)
((18, 1, 0, 4, -14, 1, 1, -2), 3, 21.484119033269494)
((10, 1, 2, 1, 5, -1, -1, 8), 3, 21.50270978527553)
((28, 1, 2, 3, 24, 17, 9, 15), 3, 21.521337028866554)
((-8, -1, 4, 3, -26, 1, 1, -7), 3, 21.540625112254386)
((1, 0, 0, 1, 4, 3, 4, 61), 3, 21.55993201161573)
((10, -3, -2, 1, -2, -2, -1, 10), 3, 21.580233876848883)
((43, 2, 0, 1, -9, -5, 1, -4), 3, 21.599253975159495)
((43, 2, 0, 1, -9, -5, 1, -4), 3, 21.617495206203113)
((-7, -3, -2, -2, -5, -5, -2, 9), 3, 21.639531562085015)
((1, 4, 0, -4, 19, -8, -4, 3), 3, 21.657743143715834)
((-4, -3, -1, -3, 9, 0, -2, -54), 3, 21.677209123580464)
((-2, 0, 2, 3, -16, 7, -2, -14), 3, 21.696809095983703)
((35, 0, -3, -3, 15, -2, -5, -7), 3, 21.718532422488167)
((14, 0, 1, 2, 20, 3, 2, -3), 3, 21.739345169911093)
((-8, -3, -1, -5, -2, -8, -4, -5), 3, 21.764855638719624)
((-5, -2, -1, -2, -19, -4, 0, 1), 3, 21.786581245948152)
((-3, -1, -1, -1, 1, -1, -5, -13), 3, 21.807185877300466)
((-59, -5, -2, 1, -7, 0, -4, -5), 3, 21.826022947505145)
((-10, -2, 0, -2, 11, -2, -5, -5), 3, 21.847659606495274)
((9, -2, 1, 0, 1, -2, 1, 0), 3, 21.869609865043856)
((23, 6, 5, 8, -25, 8, 6, 3), 3, 21.89043743717318)
((-16, -2, -2, 0, -2, 0, -2, -9), 3, 21.909794512463872)
