((6, 19, 3, 1, -41, 5, 18, 49), 0, 5.701810153669486e-07)
((6, 19, 3, 1, -41, 5, 18, 49), 0, 0.0008695260484345965)
((6, 19, 3, 1, -41, 5, 18, 49), 0, 0.0017362011917923584)
((6, 19, 3, 1, -41, 5, 18, 49), 0, 0.0025623934830590668)
((6, 19, 3, 1, -41, 5, 18, 49), 0, 0.003457007496169809)
((6, 19, 3, 1, -41, 5, 18, 49), 0, 0.004649826180317465)
((-15, -16, -4, -2, 15, 0, 5, -11), 0, 0.007424897182108404)
((-15, -16, -4, -2, 15, 0, 5, -11), 0, 0.008877148228248023)
((-15, -16, -4, -2, 15, 0, 5, -11), 0, 0.010431461676138324)
((-15, -16, -4, -2, 15, 0, 5, -11), 0, 0.011741167468436205)
((-15, -16, -4, -2, 15, 0, 5, -11), 0, 0.012901485834707944)
((-15, -16, -4, -2, 15, 0, 5, -11), 0, 0.01386110048357052)
((-15, -16, -4, -2, 15, 0, 5, -11), 0, 0.014689573498898696)
((-15, -16, -4, -2, 15, 0, 5, -11), 0, 0.016284939979895417)
((-15, -16, -4, -2, 15, 0, 5, -11), 0, 0.01733293268613987)
((-15, -16, -4, -2, 15, 0, 5, -11), 0, 0.018271450637433868)
((-15, -16, -4, -2, 15, 0, 5, -11), 0, 0.019727122769665685)
((-2, 29, 7, 1, -10, 7, -4, -11), 0, 0.023381983078167825)
((-2, 29, 7, 1, -10, 7, -4, -11), 0, 0.02832944374850684)
((-2, 29, 7, 1, -10, 7, -4, -11), 0, 0.030017749735008373)
((8, -7, 7, 22, -11, -12, 7, 3), 0, 0.031731143686186056)
((-12, -27, -9, -7, -28, 10, 4, 2), 0, 0.03335330867490502)
((-12, -27, -9, -7, -28, 10, 4, 2), 0, 0.0356049535045891)
((-12, -27, -9, -7, -28, 10, 4, 2), 0, 0.036822860153412906)
((-12, -27, -9, -7, -28, 10, 4, 2), 0, 0.038329278396012384)
((-12, -27, -9, -7, -28, 10, 4, 2), 0, 0.03979236288144397)
((-12, -27, -9, -7, -28, 10, 4, 2), 0, 0.04120755216158474)
((-7, 2, -23, -43, -67, -22, -9, -18), 0, 0.044947369441376554)
((7, 14, -9, -20, 57, 41, -57, 6), 0, 0.046148740840754716)
((7, 14, -9, -20, 57, 41, -57, 6), 0, 0.04706730245651087)
((7, 14, -9, -20, 57, 41, -57, 6), 0, 0.047871257688178265)
((7, 14, -9, -20, 57, 41, -57, 6), 0, 0.04869859034147571)
((7, 14, -9, -20, 57, 41, -57, 6), 0, 0.04972833725522842)
((-1, -5, -6, -40, 33, -19, -15, 2), 0, 0.05066229375839948)
((-10, -19, -5, -4, -18, -14, 44, 10), 0, 0.05163160148452329)
((-10, -19, -5, -4, -18, -14, 44, 10), 0, 0.05235744191708542)
((-10, -19, -5, -4, -18, -14, 44, 10), 0, 0.053146572442353275)
((-10, -19, -5, -4, -18, -14, 44, 10), 0, 0.05464785905581445)
((-10, -19, -5, -4, -18, -14, 44, 10), 0, 0.055642254746614404)
((-10, -19, -5, -4, -18, -14, 44, 10), 0, 0.056698229987073995)
((-10, -19, -5, -4, -18, -14, 44, 10), 0, 0.058632283991198686)
((10, 8, 11, 28, 15, -7, 10, 8), 0, 0.060543530754708696)
((10, 8, 11, 28, 15, -7, 10, 8), 0, 0.06148147852498733)
((10, 8, 11, 28, 15, -7, 10, 8), 0, 0.062311662083361606)
((10, 8, 11, 28, 15, -7, 10, 8), 0, 0.06321026736357992)
((10, 8, 11, 28, 15, -7, 10, 8), 0, 0.06493677547811104)
((10, 8, 11, 28, 15, -7, 10, 8), 0, 0.06610792728367475)
((-1, 1, -2, -4, -75, -5, 0, 14), 0, 0.06673683694362449)
((-5, -2, 1, 8, 126, 11, -15, -16), 0, 0.07075946400703831)
((-5, -2, 1, 8, 126, 11, -15, -16), 0, 0.07427748087185239)
((-5, -2, 1, 8, 126, 11, -15, -16), 0, 0.07681364602820458)
((-5, -2, 1, 8, 126, 11, -15, -16), 0, 0.07818949281828502)
((-5, -2, 1, 8, 126, 11, -15, -16), 0, 0.0798184999791884)
((-5, -2, 1, 8, 126, 11, -15, -16), 0, 0.08077355317992803)
((-13, -12, -18, -64, -128, -80, -77, -23), 0, 0.08196352095899885)
((-5, 5, 2, 37, 111, 55, -44, 1), 0, 0.08339182440249306)
((-5, 5, 2, 37, 111, 55, -44, 1), 0, 0.08422485886594418)
((-5, 5, 2, 37, 111, 55, -44, 1), 0, 0.08503907735588817)
((-5, 5, 2, 37, 111, 55, -44, 1), 0, 0.08583162896724823)
((-5, 5, 2, 37, 111, 55, -44, 1), 0, 0.08670229537771357)
((-5, 5, 2, 37, 111, 55, -44, 1), 0, 0.08785235048570869)
((-2, -14, -10, -17, -39, -19, -13, -8), 0, 0.0890702571345325)
((-2, -14, -10, -17, -39, -19, -13, -8), 0, 0.08998995911231938)
((-2, -14, -10, -17, -39, -19, -13, -8), 0, 0.09084694117841591)
((-2, -14, -10, -17, -39, -19, -13, -8), 0, 0.09373889928835707)
((-2, -14, -10, -17, -39, -19, -13, -8), 0, 0.09544145980024278)
((-2, -14, -10, -17, -39, -19, -13, -8), 0, 0.09637484612239848)
((-2, -14, -10, -17, -39, -19, -13, -8), 0, 0.0972284071024028)
((-2, -14, -10, -17, -39, -19, -13, -8), 0, 0.09821139917289542)
((-2, -14, -10, -17, -39, -19, -13, -8), 0, 0.0991345222367745)
((-2, -14, -10, -17, -39, -19, -13, -8), 0, 0.09998238140662516)
((-2, -14, -10, -17, -39, -19, -13, -8), 0, 0.10079659989656917)
((-2, -14, -10, -17, -39, -19, -13, -8), 0, 0.10272039064241725)
((-1, 1, -10, -26, -6, -21, 5, 7), 0, 0.10363952243918877)
((-1, 1, -10, -26, -6, -21, 5, 7), 0, 0.10442238097328758)
((-1, 1, -10, -26, -6, -21, 5, 7), 0, 0.10520580968840178)
((-1, 1, -10, -26, -6, -21, 5, 7), 0, 0.10603257216068385)
((-1, 1, -10, -26, -6, -21, 5, 7), 0, 0.10692661599277922)
((-1, 1, -10, -26, -6, -21, 5, 7), 0, 0.10784631797056611)
((-1, 1, -10, -26, -6, -21, 5, 7), 0, 0.11127823750205978)
((-1, 1, -10, -26, -6, -21, 5, 7), 0, 0.1128616301817338)
((-5, 4, -3, -8, 15, 10, -18, -2), 0, 0.11377163908225944)
((-1, -7, -2, 3, -13, 5, 1, -23), 0, 0.11456533105565024)
((-1, -7, -2, 3, -13, 5, 1, -23), 0, 0.115307706737658)
((-1, -7, -2, 3, -13, 5, 1, -23), 0, 0.11624736505098274)
((-1, -7, -2, 3, -13, 5, 1, -23), 0, 0.11755764102429599)
((-2, 4, -2, -8, -47, -12, 25, -6), 0, 0.1186113355406941)
((-2, 4, -2, -8, -47, -12, 25, -6), 0, 0.11939476425580829)
((-2, 4, -2, -8, -47, -12, 25, -6), 0, 0.1201742017038149)
((-2, 4, -2, -8, -47, -12, 25, -6), 0, 0.12141035414513046)
((-2, 4, -2, -8, -47, -12, 25, -6), 0, 0.12232663503682514)
((-2, 4, -2, -8, -47, -12, 25, -6), 0, 0.12333471507199391)
((-2, 4, -2, -8, -47, -12, 25, -6), 0, 0.12427437338531863)
((1, -3, -3, 1, 9, 30, 9, 4), 0, 0.12708365524803159)
((-2, -1, 0, 1, -15, -1, -6, -2), 0, 0.12871836421908864)
((-2, -1, 0, 1, -15, -1, -6, -2), 0, 0.13036219608639155)
((-2, -1, 0, 1, -15, -1, -6, -2), 0, 0.13118838837765825)
((-2, -1, 0, 1, -15, -1, -6, -2), 0, 0.13220445094704217)
((-2, -1, 0, 1, -15, -1, -6, -2), 0, 0.13315380233762814)
((-2, -1, 0, 1, -15, -1, -6, -2), 0, 0.1341168380725829)
((-2, -1, 0, 1, -15, -1, -6, -2), 0, 0.13495272344111084)
((-2, -1, 0, 1, -15, -1, -6, -2), 0, 0.13570023075225693)
((-2, -1, 0, 1, -15, -1, -6, -2), 0, 0.13657089716272225)
((-2, -1, 0, 1, -15, -1, -6, -2), 0, 0.13730757103457636)
((-2, -1, 0, 1, -15, -1, -6, -2), 0, 0.1381240702485818)
((-2, -1, 0, 1, -15, -1, -6, -2), 0, 0.13986882415560467)
((-1, 0, 0, 8, 30, 35, -5, -16), 0, 0.14135243515758947)
((1, 10, 0, -4, -40, -22, 45, 4), 0, 0.1433013138681137)
((1, 10, 0, -4, -40, -22, 45, 4), 0, 0.14450781689663017)
((1, 10, 0, -4, -40, -22, 45, 4), 0, 0.14568353015031682)
((1, 10, 0, -4, -40, -22, 45, 4), 0, 0.14665625896253284)
((1, 10, 0, -4, -40, -22, 45, 4), 0, 0.1480936853022729)
((0, -46, -7, 0, 13, 1, -12, -4), 0, 0.14944273358463112)
((0, -46, -7, 0, 13, 1, -12, -4), 0, 0.15023243429091435)
((0, -46, -7, 0, 13, 1, -12, -4), 0, 0.15106432839233472)
((0, -46, -7, 0, 13, 1, -12, -4), 0, 0.15190363484695485)
((0, -46, -7, 0, 13, 1, -12, -4), 0, 0.15275434492188236)
((0, -46, -7, 0, 13, 1, -12, -4), 0, 0.1535263700166892)
((0, -46, -7, 0, 13, 1, -12, -4), 0, 0.15450080937195132)
((0, -46, -7, 0, 13, 1, -12, -4), 0, 0.15559327619739438)
((0, -46, -7, 0, 13, 1, -12, -4), 0, 0.1564263106608455)
((0, -46, -7, 0, 13, 1, -12, -4), 0, 0.1592316012564509)
((0, -46, -7, 0, 13, 1, -12, -4), 0, 0.16027902378167996)
((0, -46, -7, 0, 13, 1, -12, -4), 0, 0.1613429815563547)
((0, -46, -7, 0, 13, 1, -12, -4), 0, 0.16302216464661035)
((-20, 24, 13, 1, -30, -6, -6, -64), 0, 0.16413572816962202)
((-20, 24, 13, 1, -30, -6, -6, -64), 0, 0.16508108829310042)
((-20, 24, 13, 1, -30, -6, -6, -64), 0, 0.16593921072122766)
((-20, 24, 13, 1, -30, -6, -6, -64), 0, 0.16677623645178635)
((-20, 24, 13, 1, -30, -6, -6, -64), 0, 0.16856717502105392)
((-20, 24, 13, 1, -30, -6, -6, -64), 0, 0.1697702569634782)
((-20, 24, 13, 1, -30, -6, -6, -64), 0, 0.17076522283529352)
((0, -1, -2, -6, 13, -6, 58, 71), 0, 0.1721114202125749)
((-2, 2, 1, 2, -8, -5, 23, -4), 0, 0.17349353899382436)
((-2, 2, 1, 2, -8, -5, 23, -4), 0, 0.17537228543945846)
((-2, 2, 1, 2, -8, -5, 23, -4), 0, 0.1764619013598247)
((6, -19, -8, -6, -21, -5, -2, 44), 0, 0.1794308339068404)
((6, -19, -8, -6, -21, -5, -2, 44), 0, 0.18058716100600458)
((6, -19, -8, -6, -21, -5, -2, 44), 0, 0.1815131349749605)
((6, -19, -8, -6, -21, -5, -2, 44), 0, 0.1822840197077366)
((6, -19, -8, -6, -21, -5, -2, 44), 0, 0.18305148335442054)
((6, -19, -8, -6, -21, -5, -2, 44), 0, 0.18387254401654893)
((6, -19, -8, -6, -21, -5, -2, 44), 0, 0.18512295098324866)
((-7, -1, -2, 0, -5, 64, -73, -9), 0, 0.18626331301398255)
((-7, -1, -2, 0, -5, 64, -73, -9), 0, 0.18716419901826234)
((-7, -1, -2, 0, -5, 64, -73, -9), 0, 0.18845736956111456)
((-7, -1, -2, 0, -5, 64, -73, -9), 0, 0.1892242630267831)
((-7, -1, -2, 0, -5, 64, -73, -9), 0, 0.19006699056749546)
((-7, -1, -2, 0, -5, 64, -73, -9), 0, 0.19099524526051284)
((-7, -1, -2, 0, -5, 64, -73, -9), 0, 0.19321781085841322)
((-7, -1, -2, 0, -5, 64, -73, -9), 0, 0.1942823388141033)
((-7, -1, -2, 0, -5, 64, -73, -9), 0, 0.1952904188492721)
((-7, -1, -2, 0, -5, 64, -73, -9), 0, 0.19751469499021854)
((-7, -1, -2, 0, -5, 64, -73, -9), 0, 0.19865619738298318)
((-7, -1, -2, 0, -5, 64, -73, -9), 0, 0.19984901606713082)
((-8, -8, -4, 0, -9, -23, -12, 7), 0, 0.20085424519722275)
((3, 6, -4, -6, -4, 4, -2, -6), 0, 0.20163938445538304)
((3, 6, -4, -6, -4, 4, -2, -6), 0, 0.20239031285262132)
((3, 6, -4, -6, -4, 4, -2, -6), 0, 0.20324843528074857)
((3, 6, -4, -6, -4, 4, -2, -6), 0, 0.20409572426958386)
((3, 6, -4, -6, -4, 4, -2, -6), 0, 0.2049612590509109)
((3, 6, -4, -6, -4, 4, -2, -6), 0, 0.20645627367320304)
((3, 6, -4, -6, -4, 4, -2, -6), 0, 0.20800716603500113)
((3, 9, 1, 3, 55, 79, 38, 27), 0, 0.20929235404363825)
((3, 9, 1, 3, 55, 79, 38, 27), 0, 0.2103403467498827)
((3, 9, 1, 3, 55, 79, 38, 27), 0, 0.2111266263700737)
((3, 9, 1, 3, 55, 79, 38, 27), 0, 0.21199729278053903)
((3, 9, 1, 3, 55, 79, 38, 27), 0, 0.2130515574779525)
((3, 9, 1, 3, 55, 79, 38, 27), 0, 0.21434130693471257)
((3, 9, 1, 3, 55, 79, 38, 27), 0, 0.21600566531856868)
((3, 9, 1, 3, 55, 79, 38, 27), 0, 0.21694646399392414)
((3, 9, 1, 3, 55, 79, 38, 27), 0, 0.21768655895187045)
((3, 9, 1, 3, 55, 79, 38, 27), 0, 0.21843862771113945)
((3, 9, 1, 3, 55, 79, 38, 27), 0, 0.21920324045274653)
((3, 9, 1, 3, 55, 79, 38, 27), 0, 0.2199541688499848)
((3, 9, 1, 3, 55, 79, 38, 27), 0, 0.22081229127811206)
((3, 9, 1, 3, 55, 79, 38, 27), 0, 0.22178673063337417)
((3, 9, 1, 3, 55, 79, 38, 27), 0, 0.22292709266410807)
((-4, 5, 4, 7, 7, 31, 22, -3), 0, 0.22407657759108784)
((6, -1, -2, -5, -8, -5, 8, 10), 0, 0.2261737033656075)
((6, -1, -2, -5, -8, -5, 8, 10), 0, 0.2271150722219783)
((6, -1, -2, -5, -8, -5, 8, 10), 0, 0.22790648347130762)
((6, -1, -2, -5, -8, -5, 8, 10), 0, 0.22871785105617481)
((6, -1, -2, -5, -8, -5, 8, 10), 0, 0.2299944863495814)
((-2, -7, -4, -3, -4, 5, -11, -12), 0, 0.23121980535160497)
((-3, 2, -1, -3, -22, -25, 7, -9), 0, 0.23242972946621365)
((-3, 2, -1, -3, -22, -25, 7, -9), 0, 0.233289562437387)
((-3, 2, -1, -3, -22, -25, 7, -9), 0, 0.23411461436662298)
((-3, 2, -1, -3, -22, -25, 7, -9), 0, 0.23553949672402497)
((-3, 2, -1, -3, -22, -25, 7, -9), 0, 0.23634630286076921)
((-3, 2, -1, -3, -22, -25, 7, -9), 0, 0.23706530112114693)
((-3, 2, -1, -3, -22, -25, 7, -9), 0, 0.23788408105921388)
((-3, 2, -1, -3, -22, -25, 7, -9), 0, 0.23868974683392738)
((-3, 2, -1, -3, -22, -25, 7, -9), 0, 0.23943896468811954)
((-3, 2, -1, -3, -22, -25, 7, -9), 0, 0.24030792055553876)
((-3, 2, -1, -3, -22, -25, 7, -9), 0, 0.2415720118666073)
((-3, 2, -1, -3, -22, -25, 7, -9), 0, 0.24285149806509074)
((-3, 2, -1, -3, -22, -25, 7, -9), 0, 0.24483059636942942)
((-3, 2, -1, -3, -22, -25, 7, -9), 0, 0.24592534391893395)
((-3, -10, -4, -4, -10, -25, 7, -4), 0, 0.2470611445015449)
((-3, -10, -4, -4, -10, -25, 7, -4), 0, 0.24799567118573135)
((-3, -10, -4, -4, -10, -25, 7, -4), 0, 0.24912748050123473)
((-3, -10, -4, -4, -10, -25, 7, -4), 0, 0.25010876202868126)
((-3, -10, -4, -4, -10, -25, 7, -4), 0, 0.2508785063994266)
((-3, -10, -4, -4, -10, -25, 7, -4), 0, 0.2516967161564782)
((-5, 9, 6, 13, 16, -16, 15, -35), 0, 0.25351046196636046)
((-5, 9, 6, 13, 16, -16, 15, -35), 0, 0.2543047241207666)
((-5, 9, 6, 13, 16, -16, 15, -35), 0, 0.2551867941515393)
((-5, 9, 6, 13, 16, -16, 15, -35), 0, 0.2560511885708356)
((-5, 9, 6, 13, 16, -16, 15, -35), 0, 0.2568688281468718)
((-5, 9, 6, 13, 16, -16, 15, -35), 0, 0.2576459848708169)
((-5, 9, 6, 13, 16, -16, 15, -35), 0, 0.25995236707797625)
((-5, 9, 6, 13, 16, -16, 15, -35), 0, 0.26119935295858376)
((-5, 9, 6, 13, 16, -16, 15, -35), 0, 0.26273085916585937)
((-5, 9, 6, 13, 16, -16, 15, -35), 0, 0.26364428915247723)
((-5, 9, 6, 13, 16, -16, 15, -35), 0, 0.2646626324459226)
((-5, 9, 6, 13, 16, -16, 15, -35), 0, 0.2657123356952132)
((-5, 9, 6, 13, 16, -16, 15, -35), 0, 0.26709901592458557)
((1, -4, -2, -2, -1, 16, -22, 15), 0, 0.2684258271473445)
((-2, -4, -2, -4, -10, -4, -7, 8), 0, 0.2694225035622059)
((-2, -4, -2, -4, -10, -4, -7, 8), 0, 0.2702093533634123)
((-2, -4, -2, -4, -10, -4, -7, 8), 0, 0.2759761641528336)
((4, -5, -4, -1, 1, -5, -11, -6), 0, 0.2773856516228207)
((-10, -5, -7, -5, -11, -32, -7, -17), 0, 0.2782591689383629)
((-10, -5, -7, -5, -11, -32, -7, -17), 0, 0.27906483471307636)
((-10, -5, -7, -5, -11, -32, -7, -17), 0, 0.27988589537520475)
((-10, -5, -7, -5, -11, -32, -7, -17), 0, 0.2819014852645269)
((-10, -5, -7, -5, -11, -32, -7, -17), 0, 0.2834136053172801)
((-10, -5, -7, -5, -11, -32, -7, -17), 0, 0.28469024061068665)
((-10, -5, -7, -5, -11, -32, -7, -17), 0, 0.2856253374758885)
((-10, -5, -7, -5, -11, -32, -7, -17), 0, 0.2864749071887852)
((-10, -5, -7, -5, -11, -32, -7, -17), 0, 0.2872355286632847)
((-10, -5, -7, -5, -11, -32, -7, -17), 0, 0.2880366329898753)
((-10, -5, -7, -5, -11, -32, -7, -17), 0, 0.2888132195328051)
((-10, -5, -7, -5, -11, -32, -7, -17), 0, 0.2899957749586761)
((-3, 19, 0, -4, -33, -18, 80, -66), 0, 0.2921596119119937)
((-3, 19, 0, -4, -33, -18, 80, -66), 0, 0.2935143620045056)
((-3, 19, 0, -4, -33, -18, 80, -66), 0, 0.29437020370857137)
((-3, 19, 0, -4, -33, -18, 80, -66), 0, 0.29521920324045275)
((-3, 19, 0, -4, -33, -18, 80, -66), 0, 0.2960892994699027)
((-3, 19, 0, -4, -33, -18, 80, -66), 0, 0.297253609103282)
((-9, -14, -1, 3, 8, 6, 29, 6), 0, 0.29829704036140353)
((-1, -8, -6, -7, -21, -3, -60, -4), 0, 0.29954231569896494)
((-1, -8, -6, -7, -21, -3, -60, -4), 0, 0.30175404785757337)
((-1, -8, -6, -7, -21, -3, -60, -4), 0, 0.3025437485638566)
((-1, -8, -6, -7, -21, -3, -60, -4), 0, 0.3032781417116492)
((-1, -8, -6, -7, -21, -3, -60, -4), 0, 0.3041476677600838)
((-1, -8, -6, -7, -21, -3, -60, -4), 0, 0.3052270204221734)
((-5, 4, 1, 2, 7, -74, -37, -17), 0, 0.3061609769253445)
((4, 6, 1, 0, -33, -1, 9, 17), 0, 0.3069763357773192)
((4, 6, 1, 0, -33, -1, 9, 17), 0, 0.30792625734892054)
((4, 6, 1, 0, -33, -1, 9, 17), 0, 0.30975083659809477)
((4, 6, 1, 0, -33, -1, 9, 17), 0, 0.310602687035053)
((4, 6, 1, 0, -33, -1, 9, 17), 0, 0.3118701994322137)
((4, 6, 1, 0, -33, -1, 9, 17), 0, 0.31305503558214626)
((4, 6, 1, 0, -33, -1, 9, 17), 0, 0.3141030282883907)
((4, 6, 1, 0, -33, -1, 9, 17), 0, 0.31500505465470124)
((4, 6, 1, 0, -33, -1, 9, 17), 0, 0.3158905457715661)
((4, 6, 1, 0, -33, -1, 9, 17), 0, 0.3167634929060929)
((4, 6, 1, 0, -33, -1, 9, 17), 0, 0.3177812660185229)
((4, 6, 1, 0, -33, -1, 9, 17), 0, 0.31880474094110656)
((5, -3, -2, -3, -7, -18, -1, 21), 0, 0.32069375064501726)
((5, -3, -2, -3, -7, -18, -1, 21), 0, 0.32152735528948373)
((5, -3, -2, -3, -7, -18, -1, 21), 0, 0.3223284596160743)
((5, -3, -2, -3, -7, -18, -1, 21), 0, 0.32312671303758805)
((5, -3, -2, -3, -7, -18, -1, 21), 0, 0.3239249664591018)
((5, -3, -2, -3, -7, -18, -1, 21), 0, 0.325190198132201)
((5, -3, -2, -3, -7, -18, -1, 21), 0, 0.32712083105023354)
((5, -3, -2, -3, -7, -18, -1, 21), 0, 0.32811921800814103)
((-2, -7, -1, -6, -4, -6, -14, -3), 0, 0.329480240091822)
((-2, -7, -1, -6, -4, -6, -14, -3), 0, 0.33025853717779785)
((-2, -7, -1, -6, -4, -6, -14, -3), 0, 0.331295126263735)
((-2, -7, -1, -6, -4, -6, -14, -3), 0, 0.33212530982210925)
((-2, -7, -1, -6, -4, -6, -14, -3), 0, 0.33294808102728374)
((-2, -7, -1, -6, -4, -6, -14, -3), 0, 0.3339630032346369)
((-2, -7, -1, -6, -4, -6, -14, -3), 0, 0.33527670029404233)
((-2, -7, -1, -6, -4, -6, -14, -3), 0, 0.3364643873490517)
((-2, -7, -1, -6, -4, -6, -14, -3), 0, 0.33727917602001106)
((-2, -7, -1, -6, -4, -6, -14, -3), 0, 0.3386841020418752)
((-2, -7, -1, -6, -4, -6, -14, -3), 0, 0.3396425763287071)
((-2, -7, -1, -6, -4, -6, -14, -3), 0, 0.340437978845144)
((-2, -7, -1, -6, -4, -6, -14, -3), 0, 0.34140614620923704)
((-2, -7, -1, -6, -4, -6, -14, -3), 0, 0.34346906112283465)
((0, 4, -1, -7, -2, -21, -11, -19), 0, 0.34477135456193275)
((-8, 3, 2, 15, 37, 20, 27, 61), 0, 0.34572754812470313)
((-8, 3, 2, 15, 37, 20, 27, 61), 0, 0.3465486087868316)
((-8, 3, 2, 15, 37, 20, 27, 61), 0, 0.34748598637609485)
((-8, 3, 2, 15, 37, 20, 27, 61), 0, 0.34841823233621977)
((-8, 3, 2, 15, 37, 20, 27, 61), 0, 0.3496253055457516)
((-8, 3, 2, 15, 37, 20, 27, 61), 0, 0.350542726799477)
((9, 2, -3, -3, 5, -7, 2, 0), 0, 0.3518376078853754)
((9, 2, -3, -3, 5, -7, 2, 0), 0, 0.35284340719648266)
((9, 2, -3, -3, 5, -7, 2, 0), 0, 0.35394385655614086)
((9, 2, -3, -3, 5, -7, 2, 0), 0, 0.3547557943220234)
((9, 2, -3, -3, 5, -7, 2, 0), 0, 0.3554975998230158)
((9, 2, -3, -3, 5, -7, 2, 0), 0, 0.35665107601710316)
((9, 2, -3, -3, 5, -7, 2, 0), 0, 0.3578444648822662)
((-1, -40, -1, -3, -13, 8, 3, -8), 0, 0.35970667607845463)
((7, 43, -1, -5, 1, 3, -48, 7), 0, 0.36092914417540134)
((7, 43, -1, -5, 1, 3, -48, 7), 0, 0.3616703794953784)
((7, 43, -1, -5, 1, 3, -48, 7), 0, 0.3625108263120293)
((7, 43, -1, -5, 1, 3, -48, 7), 0, 0.36336210656797213)
((7, 43, -1, -5, 1, 3, -48, 7), 0, 0.3642823787267744)
((7, 43, -1, -5, 1, 3, -48, 7), 0, 0.365683313481531)
((-16, -21, 2, 1, 2, 9, -1, -42), 0, 0.3665197690310743)
((-3, 4, -3, -5, -28, -20, 0, 19), 0, 0.3675614897461497)
((-3, 4, -3, -5, -28, -20, 0, 19), 0, 0.36840934891600036)
((-3, 4, -3, -5, -28, -20, 0, 19), 0, 0.3694111569600001)
((-3, 4, -3, -5, -28, -20, 0, 19), 0, 0.37059029129977894)
((-3, 4, -3, -5, -28, -20, 0, 19), 0, 0.3718606546020165)
((-3, 4, -3, -5, -28, -20, 0, 19), 0, 0.3729234720146605)
((-3, 4, -3, -5, -28, -20, 0, 19), 0, 0.37492879864570605)
((-3, 4, -3, -5, -28, -20, 0, 19), 0, 0.37845707876879675)
((-3, 4, -3, -5, -28, -20, 0, 19), 0, 0.3800399012674554)
((-3, 4, -3, -5, -28, -20, 0, 19), 0, 0.3807092937794962)
((3, -24, -6, 0, 4, -17, 53, 7), 0, 0.38161702195596037)
((3, -24, -6, 0, 4, -17, 53, 7), 0, 0.38242439827371993)
((3, -24, -6, 0, 4, -17, 53, 7), 0, 0.38355734795125407)
((3, -24, -6, 0, 4, -17, 53, 7), 0, 0.38434932938159877)
((3, -24, -6, 0, 4, -17, 53, 7), 0, 0.38525249610994)
((3, -24, -6, 0, 4, -17, 53, 7), 0, 0.3862292161892636)
((3, -24, -6, 0, 4, -17, 53, 7), 0, 0.38773107298374015)
((-6, 8, 0, 3, 10, 36, -10, -15), 0, 0.3890293751557307)
((4, -10, 1, 2, -14, -54, -72, 39), 0, 0.3898105231467834)
((4, -10, 1, 2, -14, -54, -72, 39), 0, 0.39056658317316)
((4, -10, 1, 2, -14, -54, -72, 39), 0, 0.39302748443548374)
((4, -10, 1, 2, -14, -54, -72, 39), 0, 0.3941034160114812)
((4, -10, 1, 2, -14, -54, -72, 39), 0, 0.39545417483688544)
((4, -10, 1, 2, -14, -54, -72, 39), 0, 0.39633966595375036)
((4, -10, 1, 2, -14, -54, -72, 39), 0, 0.3972017796489852)
((4, -10, 1, 2, -14, -54, -72, 39), 0, 0.3980690249733583)
((4, -10, 1, 2, -14, -54, -72, 39), 0, 0.3988712696619796)
((4, -10, 1, 2, -14, -54, -72, 39), 0, 0.39969461104816945)
((4, -10, 1, 2, -14, -54, -72, 39), 0, 0.4004466798074385)
((4, -10, 1, 2, -14, -54, -72, 39), 0, 0.4012797142708896)
((4, -10, 1, 2, -14, -54, -72, 39), 0, 0.402869949122748)
((4, -18, -2, -7, -12, 29, -4, -6), 0, 0.40418307600113806)
((4, -18, -2, -7, -12, 29, -4, -6), 0, 0.405340543462333)
((4, -18, -2, -7, -12, 29, -4, -6), 0, 0.40615134086618476)
((4, -18, -2, -7, -12, 29, -4, -6), 0, 0.40703569162101894)
((4, -18, -2, -7, -12, 29, -4, -6), 0, 0.4079673674001285)
((4, -18, -2, -7, -12, 29, -4, -6), 0, 0.40947036455663577)
((4, -18, -2, -7, -12, 29, -4, -6), 0, 0.4106762974041369)
((-11, -13, -4, -3, 19, -2, -31, -54), 0, 0.4128030725914556)
((-11, -13, -4, -3, 19, -2, -31, -54), 0, 0.4136024663750001)
((-11, -13, -4, -3, 19, -2, -31, -54), 0, 0.41435510531528447)
((-11, -13, -4, -3, 19, -2, -31, -54), 0, 0.4151026126264305)
((-11, -13, -4, -3, 19, -2, -31, -54), 0, 0.4159276645556665)
((-11, -13, -4, -3, 19, -2, -31, -54), 0, 0.41676697101028665)
((-11, -13, -4, -3, 19, -2, -31, -54), 0, 0.417978035486926)
((4, 14, 6, 9, 2, -22, -4, 10), 0, 0.4190026507715404)
((4, 14, 6, 9, 2, -22, -4, 10), 0, 0.41982656233874566)
((4, 14, 6, 9, 2, -22, -4, 10), 0, 0.4208335020118837)
((4, 14, 6, 9, 2, -22, -4, 10), 0, 0.422919224166096)
((4, 14, 6, 9, 2, -22, -4, 10), 0, 0.4237180477686251)
((4, 14, 6, 9, 2, -22, -4, 10), 0, 0.4254257399096491)
((-1, -14, -4, -3, -18, -3, 3, -21), 0, 0.4267388667880392)
((0, 5, 1, 1, -11, 12, 7, -3), 0, 0.42789063243908043)
((0, 5, 1, 1, -11, 12, 7, -3), 0, 0.42875502685837674)
((0, 5, 1, 1, -11, 12, 7, -3), 0, 0.4296011754851813)
((0, 5, 1, 1, -11, 12, 7, -3), 0, 0.43042109578527893)
((0, 5, 1, 1, -11, 12, 7, -3), 0, 0.4311737347255633)
((0, 5, 1, 1, -11, 12, 7, -3), 0, 0.43298405944935336)
((0, 5, 1, 1, -11, 12, 7, -3), 0, 0.4338324888002194)
((0, 5, 1, 1, -11, 12, 7, -3), 0, 0.43461363679127213)
((0, 5, 1, 1, -11, 12, 7, -3), 0, 0.43539820586841704)
((0, 5, 1, 1, -11, 12, 7, -3), 0, 0.43622781924577597)
((0, 5, 1, 1, -11, 12, 7, -3), 0, 0.43706484497633463)
((0, 5, 1, 1, -11, 12, 7, -3), 0, 0.4379714327907681)
((0, 5, 1, 1, -11, 12, 7, -3), 0, 0.44052128229148907)
((-2, 6, -1, -2, 11, -9, -6, 1), 0, 0.4430990706619631)
((4, -12, -8, -5, -9, 1, 0, -7), 0, 0.44485750891335474)
((4, -12, -8, -5, -9, 1, 0, -7), 0, 0.44780819566787866)
((4, -12, -8, -5, -9, 1, 0, -7), 0, 0.4493539564005385)
((8, 19, 4, -1, 10, -1, 20, 30), 0, 0.450465809380504)
((8, 19, 4, -1, 10, -1, 20, 30), 0, 0.45132336162761594)
((8, 19, 4, -1, 10, -1, 20, 30), 0, 0.45276820032055576)
((8, 19, 4, -1, 10, -1, 20, 30), 0, 0.4539958000466408)
((8, 19, 4, -1, 10, -1, 20, 30), 0, 0.45530436547690795)
((8, 19, 4, -1, 10, -1, 20, 30), 0, 0.4572475423772785)
((8, 19, 4, -1, 10, -1, 20, 30), 0, 0.45923975484497065)
((8, 19, 4, -1, 10, -1, 20, 30), 0, 0.4624766724692088)
((8, 19, 4, -1, 10, -1, 20, 30), 0, 0.46400076632328463)
((-5, 7, 2, 1, -6, 1, 5, -15), 0, 0.4651588039654949)
((6, -9, -1, -3, 1, 3, -6, -6), 0, 0.46609504119272743)
((6, -9, -1, -3, 1, 3, -6, -6), 0, 0.46724110503361505)
((6, -9, -1, -3, 1, 3, -6, -6), 0, 0.4681539648392175)
((6, -9, -1, -3, 1, 3, -6, -6), 0, 0.46906853518786606)
((6, -9, -1, -3, 1, 3, -6, -6), 0, 0.47027845930247475)
((-3, -22, -6, -2, -3, 8, 22, 28), 0, 0.4719017646532245)
((-3, -22, -6, -2, -3, 8, 22, 28), 0, 0.4732633569179207)
((-3, -22, -6, -2, -3, 8, 22, 28), 0, 0.4794190311598223)
((-3, -22, -6, -2, -3, 8, 22, 28), 0, 0.4811221618527234)
((-3, -3, 2, 0, 22, -41, 45, 53), 0, 0.48251682461631096)
((-3, -3, 2, 0, 22, -41, 45, 53), 0, 0.48340288591419117)
((-3, -3, 2, 0, 22, -41, 45, 53), 0, 0.48440754486326776)
((-3, -3, 2, 0, 22, -41, 45, 53), 0, 0.48564084639950644)
((-3, -3, -2, 2, 14, -1, -13, -98), 0, 0.48664379480553693)
((7, 8, -1, -4, -9, 20, 47, 31), 0, 0.48742779370166645)
((7, 8, -1, -4, -9, 20, 47, 31), 0, 0.48819069590022746)
((7, 8, -1, -4, -9, 20, 47, 31), 0, 0.4889735544343263)
((7, 8, -1, -4, -9, 20, 47, 31), 0, 0.49340043983763526)
((7, 8, -1, -4, -9, 20, 47, 31), 0, 0.49470843508688706)
((7, 8, -1, -4, -9, 20, 47, 31), 0, 0.4956874358902721)
((7, 8, -1, -4, -9, 20, 47, 31), 0, 0.49650963691443123)
((7, 8, -1, -4, -9, 20, 47, 31), 0, 0.49730789033594497)
((7, 8, -1, -4, -9, 20, 47, 31), 0, 0.4982070657971786)
((7, 8, -1, -4, -9, 20, 47, 31), 0, 0.4994837010905852)
((7, 8, -1, -4, -9, 20, 47, 31), 0, 0.5007985385120214)
((-4, -7, -2, -6, -20, 6, -16, -21), 0, 0.5017102579555932)
((-4, -7, -2, -6, -20, 6, -16, -21), 0, 0.5024708794300927)
((-4, -7, -2, -6, -20, 6, -16, -21), 0, 0.5032440448869303)
((-4, -7, -2, -6, -20, 6, -16, -21), 0, 0.5040354561362596)
((-4, -7, -2, -6, -20, 6, -16, -21), 0, 0.5047544543966374)
((-4, -7, -2, -6, -20, 6, -16, -21), 0, 0.5054859966393531)
((-4, -7, -2, -6, -20, 6, -16, -21), 0, 0.5063623648599721)
((-4, -7, -2, -6, -20, 6, -16, -21), 0, 0.5082325585903756)
((-4, -7, -2, -6, -20, 6, -16, -21), 0, 0.5111210956142247)
((-4, -7, -2, -6, -20, 6, -16, -21), 0, 0.5122694401791736)
((-4, -7, -2, -6, -20, 6, -16, -21), 0, 0.5130870797552098)
((-4, -7, -2, -6, -20, 6, -16, -21), 0, 0.5138203325409718)
((-4, -7, -2, -6, -20, 6, -16, -21), 0, 0.5150627569734564)
((9, 8, 0, -2, -12, 3, 1, 11), 0, 0.5165748770262095)
((-6, -12, 0, 0, 3, -1, 22, -18), 0, 0.5179233551275524)
((-6, -12, 0, 0, 3, -1, 22, -18), 0, 0.5189382773349055)
((-6, -12, 0, 0, 3, -1, 22, -18), 0, 0.5209983413434263)
((-6, -12, 0, 0, 3, -1, 22, -18), 0, 0.5226552873740826)
((-6, -12, 0, 0, 3, -1, 22, -18), 0, 0.5239592913562269)
((-9, -7, -1, -3, -1, 19, -22, -8), 0, 0.5272230074881873)
((-9, -7, -1, -3, -1, 19, -22, -8), 0, 0.5310158516024082)
((-9, -7, -1, -3, -1, 19, -22, -8), 0, 0.532249153138647)
((-9, -7, -1, -3, -1, 19, -22, -8), 0, 0.5336101752223278)
((-9, -7, -1, -3, -1, 19, -22, -8), 0, 0.5346587381095876)
((-9, -7, -1, -3, -1, 19, -22, -8), 0, 0.5355641855619904)
((-9, -7, -1, -3, -1, 19, -22, -8), 0, 0.5365500285375598)
((-9, -7, -1, -3, -1, 19, -22, -8), 0, 0.5377930231510598)
((-5, 7, 0, 2, 11, 0, -1, -19), 0, 0.5399614215525003)
((-5, 7, 0, 2, 11, 0, -1, -19), 0, 0.5468742961828091)
((-5, 7, 0, 2, 11, 0, -1, -19), 0, 0.5485033033437126)
((-5, 7, 0, 2, 11, 0, -1, -19), 0, 0.5504487609681445)
((-5, 7, 0, 2, 11, 0, -1, -19), 0, 0.5517367998818585)
((-5, 7, 0, 2, 11, 0, -1, -19), 0, 0.5530316809677568)
((3, -4, 0, -2, 3, 19, 25, 17), 0, 0.5544559931441435)
((-1, -2, -2, -1, -12, -3, -12, -5), 0, 0.5556174518724459)
((-1, -2, -2, -1, -12, -3, -12, -5), 0, 0.5567646560753643)
((-1, -2, -2, -1, -12, -3, -12, -5), 0, 0.5732805193664833)
((-4, -3, -2, -3, -15, 0, 2, -20), 0, 0.5812852906412199)
((6, 2, 2, -5, -9, 70, -6, 23), 0, 0.582677672680746)
((6, 2, 2, -5, -9, 70, -6, 23), 0, 0.5836327258814856)
((-6, 9, 1, 1, 44, 6, 33, -5), 0, 0.5846698851484381)
((-2, -6, 0, 1, 4, 14, -22, 26), 0, 0.586755037121635)
((-2, -6, 0, 1, 4, 14, -22, 26), 0, 0.5875914926711783)
((-2, -6, 0, 1, 4, 14, -22, 26), 0, 0.5884376412979828)
((-2, -6, 0, 1, 4, 14, -22, 26), 0, 0.589508441244842)
((-2, -6, 0, 1, 4, 14, -22, 26), 0, 0.5905609953992094)
((-2, -6, 0, 1, 4, 14, -22, 26), 0, 0.5926581211737291)
((-2, -6, 0, 1, 4, 14, -22, 26), 0, 0.5935458930146553)
((-2, -6, 0, 1, 4, 14, -22, 26), 0, 0.5958460032306456)
((-2, -6, 0, 1, 4, 14, -22, 26), 0, 0.5971950515130038)
((-2, -6, 0, 1, 4, 14, -22, 26), 0, 0.5983200186563228)
((-2, -6, -3, -6, -20, -8, -31, -62), 0, 0.5992317380998946)
((-2, -6, -3, -6, -20, -8, -31, -62), 0, 0.5999980613845477)
((-2, -6, -3, -6, -20, -8, -31, -62), 0, 0.600755261772955)
((-2, -6, -3, -6, -20, -8, -31, -62), 0, 0.6015677697198529)
((-2, -6, -3, -6, -20, -8, -31, -62), 0, 0.6024834804305322)
((-2, -6, -3, -6, -20, -8, -31, -62), 0, 0.6033182254370295)
((-2, -6, -3, -6, -20, -8, -31, -62), 0, 0.6051906998914945)
((1, 1, -3, -1, 34, -5, 19, 4), 0, 0.6061326389288808)
((-2, -5, 1, 9, -32, 4, -1, -8), 0, 0.6069177781870411)
((-2, -5, 1, 9, -32, 4, -1, -8), 0, 0.6082936249771215)
((-2, -5, 1, 9, -32, 4, -1, -8), 0, 0.6094168815773944)
((-2, -5, 1, 9, -32, 4, -1, -8), 0, 0.6102174157229696)
((-2, -5, 1, 9, -32, 4, -1, -8), 0, 0.6110829505042966)
((-2, -5, 1, 9, -32, 4, -1, -8), 0, 0.612407481002994)
((-2, -5, 1, 9, -32, 4, -1, -8), 0, 0.6152521140886598)
((-2, -5, 1, 9, -32, 4, -1, -8), 0, 0.6164312484284385)
((-2, -5, 1, 9, -32, 4, -1, -8), 0, 0.6172426160133058)
((-2, -5, 1, 9, -32, 4, -1, -8), 0, 0.6180442905209117)
((-2, -5, 1, 9, -32, 4, -1, -8), 0, 0.6188317105031335)
((-2, -5, 1, 9, -32, 4, -1, -8), 0, 0.619943563483099)
((-2, -5, 1, 9, -32, 4, -1, -8), 0, 0.6205781749532024)
((0, -3, 1, -1, -11, -10, -1, -17), 0, 0.6215212543526193)
((-2, -3, -2, -3, 37, 2, -12, -15), 0, 0.6223634117123164)
((-2, -3, -2, -3, 37, 2, -12, -15), 0, 0.6231314455400155)
((-2, -3, -2, -3, 37, 2, -12, -15), 0, 0.6259190605241446)
((-2, -3, -2, -3, 37, 2, -12, -15), 0, 0.6269396845416514)
((-2, -3, -2, -3, 37, 2, -12, -15), 0, 0.6280965818218309)
((-2, -3, -2, -3, 37, 2, -12, -15), 0, 0.6292392245766263)
((-2, -3, -2, -3, 37, 2, -12, -15), 0, 0.6326682932030432)
((-2, -3, -2, -3, 37, 2, -12, -15), 0, 0.6335378192514778)
((-2, -3, -2, -3, 37, 2, -12, -15), 0, 0.6348173054499612)
((-2, -3, -2, -3, 37, 2, -12, -15), 0, 0.6358476225447293)
((-1, -3, -2, -1, 10, -16, 6, 13), 0, 0.6364776725667097)
((1, 3, -1, -2, -11, -2, -16, -11), 0, 0.6374857526018786)
((1, 3, -1, -2, -11, -2, -16, -11), 0, 0.6382383915421629)
((1, 3, -1, -2, -11, -2, -16, -11), 0, 0.6389910304824472)
((1, 3, -1, -2, -11, -2, -16, -11), 0, 0.6396974847604869)
((1, 3, -1, -2, -11, -2, -16, -11), 0, 0.6406217481863967)
((1, 3, -1, -2, -11, -2, -16, -11), 0, 0.6425615040006751)
((-1, 1, -2, -1, -4, 11, 4, 13), 0, 0.6438997188437413)
((-4, -7, -2, -3, -7, -1, -15, -6), 0, 0.6447749467023296)
((-4, -7, -2, -3, -7, -1, -15, -6), 0, 0.6457311402650999)
((-4, -7, -2, -3, -7, -1, -15, -6), 0, 0.6467968085828207)
((-4, -7, -2, -3, -7, -1, -15, -6), 0, 0.6479862061808762)
((-4, -7, -2, -3, -7, -1, -15, -6), 0, 0.648955513907)
((-4, -7, -2, -3, -7, -1, -15, -6), 0, 0.6502931585690509)
((-4, -7, -2, -3, -7, -1, -15, -6), 0, 0.6513383003702186)
((-4, -7, -2, -3, -7, -1, -15, -6), 0, 0.6528498502419563)
((-4, -7, -2, -3, -7, -1, -15, -6), 0, 0.6538824480607859)
((-4, -7, -2, -3, -7, -1, -15, -6), 0, 0.6547542548332819)
((-4, -7, -2, -3, -7, -1, -15, -6), 0, 0.655546806444642)
((-4, -7, -2, -3, -7, -1, -15, -6), 0, 0.6563154104533566)
((-4, -7, -2, -3, -7, -1, -15, -6), 0, 0.6577933196451877)
((-2, 2, -1, 0, -3, -6, 5, -13), 0, 0.6591463591946535)
((-3, -1, -2, 1, 3, 0, -3, 4), 0, 0.6600597891812714)
((-3, -1, -2, 1, 3, 0, -3, 4), 0, 0.6608169895696787)
((-3, -1, -2, 1, 3, 0, -3, 4), 0, 0.6618125256225094)
((-3, -1, -2, 1, 3, 0, -3, 4), 0, 0.6626774902228211)
((-3, -1, -2, 1, 3, 0, -3, 4), 0, 0.6636382452337144)
((-3, -1, -2, 1, 3, 0, -3, 4), 0, 0.6650055393085643)
((-2, -3, -1, -1, -7, -30, 15, 9), 0, 0.6664549394496271)
((1, 0, -2, -6, -20, -4, -3, -10), 0, 0.667273719387694)
((1, 0, -2, -6, -20, -4, -3, -10), 0, 0.668257281639202)
((1, 0, -2, -6, -20, -4, -3, -10), 0, 0.6689671570033339)
((1, 0, -2, -6, -20, -4, -3, -10), 0, 0.6696736112813735)
((1, 0, -2, -6, -20, -4, -3, -10), 0, 0.670807131139923)
((1, 0, -2, -6, -20, -4, -3, -10), 0, 0.671717710221464)
((1, 0, -2, -6, -20, -4, -3, -10), 0, 0.6732879887377846)
((1, 0, -2, -6, -20, -4, -3, -10), 0, 0.6748981799251809)
((1, 0, -2, -6, -20, -4, -3, -10), 0, 0.6759866554835163)
((1, 0, -2, -6, -20, -4, -3, -10), 0, 0.6768003037924449)
((1, 0, -2, -6, -20, -4, -3, -10), 0, 0.677627066264727)
((1, 0, -2, -6, -20, -4, -3, -10), 0, 0.6784042229886722)
((-1, -2, -4, -8, -17, -14, -39, -16), 0, 0.6840598484800969)
((-1, -2, -4, -8, -17, -14, -39, -16), 0, 0.6860189904488978)
((-1, -2, -4, -8, -17, -14, -39, -16), 0, 0.6872408883648292)
((-1, -2, -4, -8, -17, -14, -39, -16), 0, 0.6883373464573799)
((-1, -2, -4, -8, -17, -14, -39, -16), 0, 0.6899600816271142)
((-1, -2, -4, -8, -17, -14, -39, -16), 0, 0.6912007955165527)
((-1, -2, -4, -8, -17, -14, -39, -16), 0, 0.6922607620241198)
((-1, -2, -4, -8, -17, -14, -39, -16), 0, 0.693056734721572)
((-1, -2, -4, -8, -17, -14, -39, -16), 0, 0.6938241983682559)
((-1, -2, -4, -8, -17, -14, -39, -16), 0, 0.6949360513482216)
((6, -3, -3, -3, -42, -11, -2, 10), 0, 0.6959652280809588)
((-6, 3, 0, 1, 21, 13, -17, -36), 0, 0.6967446655289655)
((-6, 3, 0, 1, 21, 13, -17, -36), 0, 0.6976136213963847)
((-6, 3, 0, 1, 21, 13, -17, -36), 0, 0.6997232911532424)
((-6, 3, 0, 1, 21, 13, -17, -36), 0, 0.7008493986585922)
((-6, 3, 0, 1, 21, 13, -17, -36), 0, 0.7018717332191451)
((-6, 3, 0, 1, 21, 13, -17, -36), 0, 0.7030234988701863)
((2, 3, 2, 13, 50, -14, -39, 4), 0, 0.7039779818899106)
((2, 3, 2, 13, 50, -14, -39, 4), 0, 0.7047140855807493)
((2, 3, 2, 13, 50, -14, -39, 4), 0, 0.7057079110905339)
((2, 3, 2, 13, 50, -14, -39, 4), 0, 0.706643578136751)
((2, 3, 2, 13, 50, -14, -39, 4), 0, 0.7077856507105311)
((2, 3, 2, 13, 50, -14, -39, 4), 0, 0.709388999725743)
((2, 3, 2, 13, 50, -14, -39, 4), 0, 0.7104677822068172)
((2, 3, 2, 13, 50, -14, -39, 4), 0, 0.7114194143214646)
((2, 3, 2, 13, 50, -14, -39, 4), 0, 0.7121498162021497)
((2, 3, 2, 13, 50, -14, -39, 4), 0, 0.7128568406612047)
((2, 3, 2, 13, 50, -14, -39, 4), 0, 0.7136396991953036)
((2, 3, 2, 13, 50, -14, -39, 4), 0, 0.7144858478221081)
((2, 3, 2, 13, 50, -14, -39, 4), 0, 0.7156547189036103)
((2, 3, 2, 13, 50, -14, -39, 4), 0, 0.7178088627796667)
((2, 3, 2, 13, 50, -14, -39, 4), 0, 0.7191795779406088)
((3, -1, -2, 0, 17, 7, -2, 16), 0, 0.7201409031325174)
((3, -1, -2, 0, 17, 7, -2, 16), 0, 0.7209055158741245)
((3, -1, -2, 0, 17, 7, -2, 16), 0, 0.7216233737724715)
((3, -1, -2, 0, 17, 7, -2, 16), 0, 0.7224603995030302)
((3, -1, -2, 0, 17, 7, -2, 16), 0, 0.7234114614366624)
((3, -1, -2, 0, 17, 7, -2, 16), 0, 0.7253757350346014)
((-3, -3, -1, -2, -41, -12, 18, -4), 0, 0.7265810977010871)
((-3, -1, -2, -3, -9, 19, 4, -4), 0, 0.7278480399172326)
((-3, -1, -2, -3, -9, 19, 4, -4), 0, 0.7286183544689933)
((-3, -1, -2, -3, -9, 19, 4, -4), 0, 0.7294582311046288)
((-3, -1, -2, -3, -9, 19, 4, -4), 0, 0.7302080191398364)
((-3, -1, -2, -3, -9, 19, 4, -4), 0, 0.730978333691597)
((-3, -1, -2, -3, -9, 19, 4, -4), 0, 0.731904307660553)
((-3, -1, -2, -3, -9, 19, 4, -4), 0, 0.7333177863976477)
((-3, -1, -2, -3, -9, 19, 4, -4), 0, 0.735591668286931)
((-3, -1, -2, -3, -9, 19, 4, -4), 0, 0.7370610247635316)
((-3, -1, -2, -3, -9, 19, 4, -4), 0, 0.7381586232181131)
((-3, -1, -2, -3, -9, 19, 4, -4), 0, 0.7394244250722277)
((-3, -1, -2, -3, -9, 19, 4, -4), 0, 0.7406588669704971)
((-4, -4, -2, -1, -5, -5, 9, -5), 0, 0.742534192330039)
((-4, -4, -2, -1, -5, -5, 9, -5), 0, 0.7434082798265965)
((-4, -4, -2, -1, -5, -5, 9, -5), 0, 0.7441432431554046)
((-4, -4, -2, -1, -5, -5, 9, -5), 0, 0.7449363649477799)
((-4, -4, -2, -1, -5, -5, 9, -5), 0, 0.7459051024928884)
((-4, -4, -2, -1, -5, -5, 9, -5), 0, 0.7471709043470031)
((-4, -4, -2, -1, -5, -5, 9, -5), 0, 0.7481533262364803)
((-4, -4, -2, -1, -5, -5, 9, -5), 0, 0.749047940249591)
((-4, -4, -2, -1, -5, -5, 9, -5), 0, 0.7502766803377068)
((-4, -4, -2, -1, -5, -5, 9, -5), 0, 0.7514786219181003)
((-4, -4, -2, -1, -5, -5, 9, -5), 0, 0.7527107830923083)
((-4, -4, -2, -1, -5, -5, 9, -5), 0, 0.7535272823063138)
((-4, -4, -2, -1, -5, -5, 9, -5), 0, 0.7546436967344022)
((-4, -4, -2, -1, -5, -5, 9, -5), 0, 0.7556648909329244)
((4, -1, -3, -3, 4, 22, -18, -58), 0, 0.7568839379437791)
((4, -1, -3, -3, 4, 22, -18, -58), 0, 0.7583253555506266)
((4, -1, -3, -3, 4, 22, -18, -58), 0, 0.7594047082127163)
((4, -1, -3, -3, 4, 22, -18, -58), 0, 0.7602542779256131)
((4, -1, -3, -3, 4, 22, -18, -58), 0, 0.7610382768217426)
((4, -1, -3, -3, 4, 22, -18, -58), 0, 0.761932320653838)
((4, -1, -3, -3, 4, 22, -18, -58), 0, 0.7630823757618331)
((0, -2, -1, -1, 0, -6, 28, 17), 0, 0.7640516834879569)
((0, -2, -1, -1, 0, -6, 28, 17), 0, 0.7648448052803324)
((0, -2, -1, -1, 0, -6, 28, 17), 0, 0.7662445996730582)
((0, -2, -1, -1, 0, -6, 28, 17), 0, 0.7673228119731171)
((0, -2, -1, -1, 0, -6, 28, 17), 0, 0.7683206287500093)
((0, -2, -1, -1, 0, -6, 28, 17), 0, 0.7697329671250732)
((0, -2, -1, -1, 0, -6, 28, 17), 0, 0.7708009161668555)
((0, -2, -1, -1, 0, -6, 28, 17), 0, 0.7718078558399936)
((0, -2, -1, -1, 0, -6, 28, 17), 0, 0.7725479507979398)
((0, -2, -1, -1, 0, -6, 28, 17), 0, 0.7735109865328946)
((0, -2, -1, -1, 0, -6, 28, 17), 0, 0.7760123706473094)
((0, -2, -1, -1, 0, -6, 28, 17), 0, 0.7772781725014241)
((-12, -4, -4, -4, -16, -17, -26, -30), 0, 0.7781887515829651)
((5, -11, -3, -3, -15, 42, 12, 12), 0, 0.779037180933831)
((5, -11, -3, -3, -15, 42, 12, 12), 0, 0.7798348641743295)
((5, -11, -3, -3, -15, 42, 12, 12), 0, 0.7806325474148278)
((5, -11, -3, -3, -15, 42, 12, 12), 0, 0.7815089156354468)
((5, -11, -3, -3, -15, 42, 12, 12), 0, 0.7823077392379759)
((5, -11, -3, -3, -15, 42, 12, 12), 0, 0.7832171779574861)
((5, -11, -3, -3, -15, 42, 12, 12), 0, 0.7841716609772105)
((-1, -1, 1, -1, 11, 6, 15, -20), 0, 0.7870539260098903)
((-1, -1, 1, -1, 11, 6, 15, -20), 0, 0.7882974908044057)
((-1, -1, 1, -1, 11, 6, 15, -20), 0, 0.7891447797932409)
((-1, -1, 1, -1, 11, 6, 15, -20), 0, 0.7902172902831462)
((-1, -1, 1, -1, 11, 6, 15, -20), 0, 0.7914517321814156)
((-1, -1, 1, -1, 11, 6, 15, -20), 0, 0.7929775365785375)
((-1, -1, 1, -1, 11, 6, 15, -20), 0, 0.7941144775231793)
((-1, -1, 1, -1, 11, 6, 15, -20), 0, 0.7957868184412505)
((-1, -1, 1, -1, 11, 6, 15, -20), 0, 0.7966626164808541)
((-1, -1, 1, -1, 11, 6, 15, -20), 0, 0.7974865280480594)
((-1, -1, 1, -1, 11, 6, 15, -20), 0, 0.7982289037300672)
((-1, -1, 1, -1, 11, 6, 15, -20), 0, 0.7989940866526897)
((-1, -1, 1, -1, 11, 6, 15, -20), 0, 0.8003505472882476)
((0, 0, -2, -7, 3, 13, 30, 24), 0, 0.8015650328509792)
((0, 0, -2, -7, 3, 13, 30, 24), 0, 0.802521796594765)
((0, 0, -2, -7, 3, 13, 30, 24), 0, 0.803676413150883)
((0, 0, -2, -7, 3, 13, 30, 24), 0, 0.8049005917908758)
((0, 0, -2, -7, 3, 13, 30, 24), 0, 0.8058436711902928)
((0, 0, -2, -7, 3, 13, 30, 24), 0, 0.8067770575124484)
((0, 0, -2, -7, 3, 13, 30, 24), 0, 0.808120403984653)
((0, 0, -2, -7, 3, 13, 30, 24), 0, 0.8091182207615452)
((0, 0, -2, -7, 3, 13, 30, 24), 0, 0.809935290156566)
((0, 0, -2, -7, 3, 13, 30, 24), 0, 0.8108127987392157)
((0, 0, -2, -7, 3, 13, 30, 24), 0, 0.8115985081783914)
((0, 0, -2, -7, 3, 13, 30, 24), 0, 0.8123585594718755)
((0, 0, -2, -7, 3, 13, 30, 24), 0, 0.8138832235069667)
((0, 0, -2, -7, 3, 13, 30, 24), 0, 0.8150424015112078)
((-2, 5, 4, 8, 7, 14, 0, -37), 0, 0.8159951739878859)
((0, -4, -1, -1, -20, -17, -12, 73), 0, 0.816912025060596)
((0, -4, -1, -1, -20, -17, -12, 73), 0, 0.8179035698463191)
((0, -4, -1, -1, -20, -17, -12, 73), 0, 0.8188517808748743)
((0, -4, -1, -1, -20, -17, -12, 73), 0, 0.8197965708173374)
((0, -4, -1, -1, -20, -17, -12, 73), 0, 0.82082631773109)
((1, 0, -3, -2, 9, 2, -7, 0), 0, 0.8228105476645671)
((0, 0, -1, -3, -7, 3, -7, -20), 0, 0.8244692042382695)
((0, 0, -1, -3, -7, 3, -7, -20), 0, 0.8256203997082954)
((0, 0, -1, -3, -7, 3, -7, -20), 0, 0.8264996188339913)
((0, 0, -1, -3, -7, 3, -7, -20), 0, 0.8273628728912568)
((0, 0, -1, -3, -7, 3, -7, -20), 0, 0.8283247682641808)
((0, 0, -1, -3, -7, 3, -7, -20), 0, 0.8291914434075386)
((0, 0, -1, -3, -7, 3, -7, -20), 0, 0.8302536906391672)
((0, 0, -1, -3, -7, 3, -7, -20), 0, 0.8319186192040388)
((0, 0, -1, -3, -7, 3, -7, -20), 0, 0.8328041103209036)
((0, 0, -1, -3, -7, 3, -7, -20), 0, 0.8335846881309409)
((0, 0, -1, -3, -7, 3, -7, -20), 0, 0.8345579871241723)
((0, 0, -1, -3, -7, 3, -7, -20), 0, 0.8356270765279853)
((0, 0, -1, -3, -7, 3, -7, -20), 0, 0.8370485377992951)
((0, 0, -1, -3, -7, 3, -7, -20), 0, 0.8384853939580198)
((-9, 3, 3, 1, 12, -31, -13, -12), 0, 0.8398201877149939)
((-9, 3, 3, 1, 12, -31, -13, -12), 0, 0.8418511724917309)
((-9, 3, 3, 1, 12, -31, -13, -12), 0, 0.8428102169595781)
((-9, 3, 3, 1, 12, -31, -13, -12), 0, 0.8436301372596758)
((-9, 3, 3, 1, 12, -31, -13, -12), 0, 0.8446347962087524)
((-9, 3, 3, 1, 12, -31, -13, -12), 0, 0.8456879205441351)
((-4, -3, -3, 1, 34, 17, -9, -3), 0, 0.8467233692680415)
((-4, -3, -3, 1, 34, 17, -9, -3), 0, 0.8475575440935234)
((-4, -3, -3, 1, 34, 17, -9, -3), 0, 0.8483375517225453)
((-4, -3, -3, 1, 34, 17, -9, -3), 0, 0.8491700160049811)
((-4, -3, -3, 1, 34, 17, -9, -3), 0, 0.8499409007377572)
((-4, -3, -3, 1, 34, 17, -9, -3), 0, 0.8509877530819709)
((-4, -3, -3, 1, 34, 17, -9, -3), 0, 0.8521013166049826)
((-4, -3, -3, 1, 34, 17, -9, -3), 0, 0.8532656262383619)
((-4, -3, -3, 1, 34, 17, -9, -3), 0, 0.8541744947768568)
((-4, -3, -3, 1, 34, 17, -9, -3), 0, 0.8551500744941497)
((-4, -3, -3, 1, 34, 17, -9, -3), 0, 0.8565994746352125)
((-4, -3, -3, 1, 34, 17, -9, -3), 0, 0.8582854998976525)
((-4, -3, -3, 1, 34, 17, -9, -3), 0, 0.8601254740342417)
((-4, -3, -3, 1, 34, 17, -9, -3), 0, 0.8611620631201787)
((1, -4, -1, -4, -19, 4, -8, -33), 0, 0.8621866784047931)
((1, -4, -1, -4, -19, 4, -8, -33), 0, 0.863048792100028)
((1, -4, -1, -4, -19, 4, -8, -33), 0, 0.8639622220866459)
((1, -4, -1, -4, -19, 4, -8, -33), 0, 0.8646994661395153)
((1, -4, -1, -4, -19, 4, -8, -33), 0, 0.865457236708938)
((1, -4, -1, -4, -19, 4, -8, -33), 0, 0.8662298319847602)
((1, -4, -1, -4, -19, 4, -8, -33), 0, 0.867368483472448)
((1, -4, -1, -4, -19, 4, -8, -33), 0, 0.8682653782096202)
((1, -4, -1, -4, -19, 4, -8, -33), 0, 0.8702467572380204)
((1, -4, -1, -4, -19, 4, -8, -33), 0, 0.8711550555954999)
((1, -4, -1, -4, -19, 4, -8, -33), 0, 0.872037695807288)
((1, -4, -1, -4, -19, 4, -8, -33), 0, 0.8729414327166446)
((-4, 3, 0, 0, 4, -67, -29, 2), 0, 0.8757467233122499)
((-5, -1, -1, -4, 2, 9, -9, -30), 0, 0.8767108994092354)
((-5, -1, -1, -4, 2, 9, -9, -30), 0, 0.8775416531486251)
((-5, -1, -1, -4, 2, 9, -9, -30), 0, 0.8785822335016698)
((-5, -1, -1, -4, 2, 9, -9, -30), 0, 0.8801570734661133)
((-5, -1, -1, -4, 2, 9, -9, -30), 0, 0.8810693630907004)
((-5, -1, -1, -4, 2, 9, -9, -30), 0, 0.8820403813598703)
((-5, -1, -1, -4, 2, 9, -9, -30), 0, 0.8830912249711916)
((2, -1, 1, 1, -8, 0, 4, 42), 0, 0.8842344379070023)
((2, -1, 1, 1, -8, 0, 4, 42), 0, 0.8853400188957988)
((2, -1, 1, 1, -8, 0, 4, 42), 0, 0.8856148461452057)
((2, -1, 1, 1, -8, 0, 4, 42), 0, 0.8876954366702797)
((2, -1, 1, 1, -8, 0, 4, 42), 0, 0.8929530758129783)
((2, -1, 1, 1, -8, 0, 4, 42), 0, 0.8942462463558306)
((2, -1, 1, 1, -8, 0, 4, 42), 0, 0.8951043687839578)
((2, -1, 1, 1, -8, 0, 4, 42), 0, 0.8959413945145165)
((2, -1, 1, 1, -8, 0, 4, 42), 0, 0.8971906611191856)
((-8, -3, -5, -3, -4, -51, 76, -5), 0, 0.8988721249335027)
((-8, -3, -5, -3, -4, -51, 76, -5), 0, 0.8996652467258781)
((-8, -3, -5, -3, -4, -51, 76, -5), 0, 0.9005193778868977)
((-8, -3, -5, -3, -4, -51, 76, -5), 0, 0.9013301752907495)
((-8, -3, -5, -3, -4, -51, 76, -5), 0, 0.9023125971802268)
((-8, -3, -5, -3, -4, -51, 76, -5), 0, 0.9031416403765703)
((-8, -3, -5, -3, -4, -51, 76, -5), 0, 0.9038788844294399)
((-8, -3, -5, -3, -4, -51, 76, -5), 0, 0.9049816145131595)
((-7, -2, -3, -4, -18, -17, -15, -21), 0, 0.906301583563734)
((-7, -2, -3, -4, -18, -17, -15, -21), 0, 0.9092043751129671)
((-7, -2, -3, -4, -18, -17, -15, -21), 0, 0.9103242106271477)
((-7, -2, -3, -4, -18, -17, -15, -21), 0, 0.9110831215586012)
((-7, -2, -3, -4, -18, -17, -15, -21), 0, 0.9120079551655264)
((-7, -2, -3, -4, -18, -17, -15, -21), 0, 0.913093579818785)
((-7, -2, -3, -4, -18, -17, -15, -21), 0, 0.9140423610283557)
((-7, -2, -3, -4, -18, -17, -15, -21), 0, 0.9148976325514061)
((-7, -2, -3, -4, -18, -17, -15, -21), 0, 0.9157135615843962)
((-7, -2, -3, -4, -18, -17, -15, -21), 0, 0.9165323415224631)
((-7, -2, -3, -4, -18, -17, -15, -21), 0, 0.9179458202595578)
((-7, -2, -3, -4, -18, -17, -15, -21), 0, 0.9189065752704512)
((-7, -2, -3, -4, -18, -17, -15, -21), 0, 0.9202157108817336)
((-2, -3, -1, -3, -11, -4, 10, -5), 0, 0.9212169487447179)
((-2, -3, -1, -3, -11, -4, 10, -5), 0, 0.9220340181397388)
((-2, -3, -1, -3, -11, -4, 10, -5), 0, 0.9228693333272514)
((-2, -3, -1, -3, -11, -4, 10, -5), 0, 0.9243569355963438)
((-2, -3, -1, -3, -11, -4, 10, -5), 0, 0.9272654289557306)
((-2, -3, -1, -3, -11, -4, 10, -5), 0, 0.9285705732999056)
((-2, -3, -1, -3, -11, -4, 10, -5), 0, 0.9294640469509855)
((-2, -3, -1, -3, -11, -4, 10, -5), 0, 0.9303124763018515)
((-2, -3, -1, -3, -11, -4, 10, -5), 0, 0.931122703524688)
((-2, -3, -1, -3, -11, -4, 10, -5), 0, 0.932011615727645)
((-2, -3, -1, -3, -11, -4, 10, -5), 0, 0.93279618480479)
((-2, -3, -1, -3, -11, -4, 10, -5), 0, 0.9335813240629502)
((-2, -3, -1, -3, -11, -4, 10, -5), 0, 0.9346435712945789)
((-5, -3, 2, 0, -7, -18, 13, 10), 0, 0.9359259083981392)
((18, 2, -3, -1, -6, 5, -14, 14), 0, 0.9372373247334831)
((18, 2, -3, -1, -6, 5, -14, 14), 0, 0.9380447010512427)
((18, 2, -3, -1, -6, 5, -14, 14), 0, 0.9388292701283877)
((18, 2, -3, -1, -6, 5, -14, 14), 0, 0.9396714274880846)
((18, 2, -3, -1, -6, 5, -14, 14), 0, 0.9412816186754809)
((18, 2, -3, -1, -6, 5, -14, 14), 0, 0.9425673768651334)
((18, 2, -3, -1, -6, 5, -14, 14), 0, 0.9437065985338365)
((18, 2, -3, -1, -6, 5, -14, 14), 0, 0.9448321358581709)
((18, 2, -3, -1, -6, 5, -14, 14), 0, 0.9456674510456835)
((18, 2, -3, -1, -6, 5, -14, 14), 0, 0.947079219239732)
((18, 2, -3, -1, -6, 5, -14, 14), 0, 0.9478877359195224)
((18, 2, -3, -1, -6, 5, -14, 14), 0, 0.9487412968995267)
((18, 2, -3, -1, -6, 5, -14, 14), 0, 0.9500943364489924)
((-12, -1, 2, 2, 22, 7, -1, -32), 0, 0.9510488194687168)
((-2, -1, -2, -3, -20, -10, -23, -1), 0, 0.9518185638394621)
((-2, -1, -2, -3, -20, -10, -23, -1), 0, 0.9528158104353389)
((-2, -1, -2, -3, -20, -10, -23, -1), 0, 0.9536859066647889)
((-2, -1, -2, -3, -20, -10, -23, -1), 0, 0.9545765294107921)
((-2, -1, -2, -3, -20, -10, -23, -1), 0, 0.9563155815076613)
((-2, -1, -2, -3, -20, -10, -23, -1), 0, 0.9589566599708409)
((-2, -1, -2, -3, -20, -10, -23, -1), 0, 0.9603627263547359)
((-2, -1, -2, -3, -20, -10, -23, -1), 0, 0.9617032219218635)
((-2, -1, -2, -3, -20, -10, -23, -1), 0, 0.9625419581954683)
((-2, -1, -2, -3, -20, -10, -23, -1), 0, 0.9633299483587054)
((-2, -1, -2, -3, -20, -10, -23, -1), 0, 0.9642855717404605)
((-5, -1, 0, 2, 7, 24, 4, -5), 0, 0.9660411590867752)
((-5, -1, 0, 2, 7, 24, 4, -5), 0, 0.9670458180358519)
((-5, -1, 0, 2, 7, 24, 4, -5), 0, 0.9678737208701647)
((-5, -1, 0, 2, 7, 24, 4, -5), 0, 0.9686537284991866)
((-5, -1, 0, 2, 7, 24, 4, -5), 0, 0.9696697910685705)
((-5, -1, 0, 2, 7, 24, 4, -5), 0, 0.9704549303267308)
((-5, -1, 0, 2, 7, 24, 4, -5), 0, 0.9712360783177836)
((-5, -1, 0, 2, 7, 24, 4, -5), 0, 0.9723775807105481)
((4, -1, -4, -4, -11, -21, 7, 14), 0, 0.9735977680834335)
((2, -2, -2, 1, 4, 10, 9, -2), 0, 0.9756783586085075)
((2, -2, -2, 1, 4, 10, 9, -2), 0, 0.9768318348025948)
((2, -2, -2, 1, 4, 10, 9, -2), 0, 0.9781523740341846)
((2, -2, -2, 1, 4, 10, 9, -2), 0, 0.9793999300958075)
((2, -2, -2, 1, 4, 10, 9, -2), 0, 0.9804844143870355)
((2, -2, -2, 1, 4, 10, 9, -2), 0, 0.9813185892125172)
((2, -2, -2, 1, 4, 10, 9, -2), 0, 0.9821464920468301)
((2, -2, -2, 1, 4, 10, 9, -2), 0, 0.982903122254222)
((2, -2, -2, 1, 4, 10, 9, -2), 0, 0.9839169040995445)
((2, -2, -2, 1, 4, 10, 9, -2), 0, 0.9852956017947018)
((2, -2, -2, 1, 4, 10, 9, -2), 0, 0.9863116643640857)
((2, -2, -2, 1, 4, 10, 9, -2), 0, 0.9885142736264482)
((3, 0, -2, -2, -5, 4, -7, 7), 0, 0.9936846750737957)
((-4, -1, 0, -1, 2, -5, -1, -4), 0, 0.9960680317180295)
((-4, -1, 0, -1, 2, -5, -1, -4), 0, 0.9968862414750811)
((-4, -1, 0, -1, 2, -5, -1, -4), 0, 0.9977078723182249)
((-4, -1, 0, -1, 2, -5, -1, -4), 0, 0.9984542392673402)
((-4, -1, 0, -1, 2, -5, -1, -4), 0, 0.9992057378455939)
((-4, -1, 0, -1, 2, -5, -1, -4), 0, 1.0000199563355379)
((-4, -1, 0, -1, 2, -5, -1, -4), 0, 1.0008900525649878)
((-4, -1, 0, -1, 2, -5, -1, -4), 0, 1.0018000614655134)
((-4, -1, 0, -1, 2, -5, -1, -4), 0, 1.0027756411828064)
((-4, -1, 0, -1, 2, -5, -1, -4), 0, 1.003713588953085)
((-4, -1, 0, -1, 2, -5, -1, -4), 0, 1.005225709005838)
((-4, -1, 0, -1, 2, -5, -1, -4), 0, 1.0060199711602442)
((-4, -1, 0, -1, 2, -5, -1, -4), 0, 1.0074003793984476)
((-4, -1, 0, -1, 2, -5, -1, -4), 0, 1.0085418817912122)
((-4, -1, 0, -1, 2, -5, -1, -4), 0, 1.0097945694819734)
((-4, -1, 0, -1, 2, -5, -1, -4), 0, 1.011058660793042)
((-1, -2, 0, 6, 17, -63, -38, -7), 0, 1.0125103416581662)
((-1, -2, 0, 6, 17, -63, -38, -7), 0, 1.0133028932695263)
((-1, -2, 0, 6, 17, -63, -38, -7), 0, 1.0140766289073793)
((-1, -2, 0, 6, 17, -63, -38, -7), 0, 1.0150904107527017)
((-1, -2, 0, 6, 17, -63, -38, -7), 0, 1.01619086011236)
((-1, -2, 0, 6, 17, -63, -38, -7), 0, 1.0171385009598997)
((-1, -2, 0, 6, 17, -63, -38, -7), 0, 1.0182383801385426)
((-1, -2, 0, 6, 17, -63, -38, -7), 0, 1.0191632137454678)
((-1, -2, 0, 6, 17, -63, -38, -7), 0, 1.0202271715201425)
((-1, -2, 0, 6, 17, -63, -38, -7), 0, 1.0211023993787307)
((-1, -2, 0, 6, 17, -63, -38, -7), 0, 1.0218185467340317)
((-1, -2, 0, 6, 17, -63, -38, -7), 0, 1.0225466678906552)
((-1, -2, 0, 6, 17, -63, -38, -7), 0, 1.025093096305284)
((-1, -2, 0, 6, 17, -63, -38, -7), 0, 1.0261815718636196)
((-3, -1, 1, 0, 7, 19, -8, -9), 0, 1.0272369769230638)
((-3, -1, 1, 0, 7, 19, -8, -9), 0, 1.0282849696293082)
((-3, -1, 1, 0, 7, 19, -8, -9), 0, 1.0294241912980113)
((-3, -1, 1, 0, 7, 19, -8, -9), 0, 1.0302629275716162)
((-3, -1, 1, 0, 7, 19, -8, -9), 0, 1.0309847767370708)
((-3, -1, 1, 0, 7, 19, -8, -9), 0, 1.0318280744587984)
((-3, -1, 1, 0, 7, 19, -8, -9), 0, 1.0328806286131658)
((0, 0, -4, -5, -6, 8, 5, -4), 0, 1.0341424392001728)
((0, 0, -4, -5, -6, 8, 5, -4), 0, 1.034859156736489)
((0, 0, -4, -5, -6, 8, 5, -4), 0, 1.0357703059990455)
((0, 0, -4, -5, -6, 8, 5, -4), 0, 1.0368633430055039)
((0, 0, -4, -5, -6, 8, 5, -4), 0, 1.0376627367890485)
((0, 0, -4, -5, -6, 8, 5, -4), 0, 1.0384672622017312)
((0, 0, -4, -5, -6, 8, 5, -4), 0, 1.0392774894245675)
((0, 0, -4, -5, -6, 8, 5, -4), 0, 1.0411357093536484)
((0, 0, -4, -5, -6, 8, 5, -4), 0, 1.0432208613268454)
((0, 0, -4, -5, -6, 8, 5, -4), 0, 1.0441770548896159)
((0, 0, -4, -5, -6, 8, 5, -4), 0, 1.045046010757035)
((0, 0, -4, -5, -6, 8, 5, -4), 0, 1.046385365962132)
((0, 0, -4, -5, -6, 8, 5, -4), 0, 1.0478792402223933)
((-1, -3, -3, -3, 9, 11, 7, -3), 0, 1.0491587264208768)
((-1, -3, -3, -3, 9, 11, 7, -3), 0, 1.0499712343677747)
((-1, -3, -3, -3, 9, 11, 7, -3), 0, 1.0507711983323347)
((-1, -3, -3, -3, 9, 11, 7, -3), 0, 1.0519799820849125)
((-1, -3, -3, -3, 9, 11, 7, -3), 0, 1.0530262642481107)
((-1, -3, -3, -3, 9, 11, 7, -3), 0, 1.0541204416166001)
((-1, -3, -3, -3, 9, 11, 7, -3), 0, 1.0555880875501547)
((-1, -3, -3, -3, 9, 11, 7, -3), 0, 1.0569884521238957)
((-1, -3, -3, -3, 9, 11, 7, -3), 0, 1.0582639470552717)
((-1, -3, -3, -3, 9, 11, 7, -3), 0, 1.0591545698012748)
((-1, -3, -3, -3, 9, 11, 7, -3), 0, 1.0599277352581125)
((-1, -3, -3, -3, 9, 11, 7, -3), 0, 1.0611057292358606)
((-1, -3, -3, -3, 9, 11, 7, -3), 0, 1.0625442959376312)
((1, -2, -3, -7, -16, 15, -8, -2), 0, 1.064075802144907)
((-1, 1, 5, 20, 3, 1, 5, -1), 0, 1.0649624336238026)
((-1, 1, 5, 20, 3, 1, 5, -1), 0, 1.0658633196280822)
((-1, 1, 5, 20, 3, 1, 5, -1), 0, 1.0667385474866706)
((-1, 1, 5, 20, 3, 1, 5, -1), 0, 1.0675995208198747)
((-1, 1, 5, 20, 3, 1, 5, -1), 0, 1.0683635633804665)
((-1, 1, 5, 20, 3, 1, 5, -1), 0, 1.0703962587002496)
((-1, 1, 5, 20, 3, 1, 5, -1), 0, 1.0717806582055605)
((-1, 1, 5, 20, 3, 1, 5, -1), 0, 1.0725515429383365)
((-1, 1, 5, 20, 3, 1, 5, -1), 0, 1.0738686610838344)
((-1, 1, 5, 20, 3, 1, 5, -1), 0, 1.0750044616664451)
((-1, 1, 5, 20, 3, 1, 5, -1), 0, 1.0759110494808788)
((-1, 1, 5, 20, 3, 1, 5, -1), 0, 1.076906015352694)
((-1, 1, 5, 20, 3, 1, 5, -1), 0, 1.0780269912289056)
((-1, 3, 5, 15, 116, 29, -1, -4), 0, 1.0793800307783712)
((-1, 3, 5, 15, 116, 29, -1, -4), 0, 1.0808533785220793)
((-1, 3, 5, 15, 116, 29, -1, -4), 0, 1.081920187201831)
((-1, 3, 5, 15, 116, 29, -1, -4), 0, 1.082837038274541)
((-1, 3, 5, 15, 116, 29, -1, -4), 0, 1.083599940473102)
((-1, 3, 5, 15, 116, 29, -1, -4), 0, 1.0845994677930402)
((-1, 3, 5, 15, 116, 29, -1, -4), 0, 1.085450748048983)
((-2, -5, -10, -19, -44, -14, -4, -5), 0, 1.0863892660002772)
((-2, -5, -10, -19, -44, -14, -4, -5), 0, 1.0885337167990723)
((-2, -5, -10, -19, -44, -14, -4, -5), 0, 1.089546358282364)
((-2, -5, -10, -19, -44, -14, -4, -5), 0, 1.0945936006303922)
((-2, -5, -10, -19, -44, -14, -4, -5), 0, 1.0954009769481516)
((-2, -5, -10, -19, -44, -14, -4, -5), 0, 1.0969073951907513)
((-2, -5, -10, -19, -44, -14, -4, -5), 0, 1.098457717371534)
((-2, -5, -10, -19, -44, -14, -4, -5), 0, 1.0998056252918613)
((-2, 0, 3, 8, 15, 27, 4, 1), 0, 1.1008866884969972)
((2, 1, -1, -1, 6, 9, 6, 2), 0, 1.1017385389339553)
((2, 1, -1, -1, 6, 9, 6, 2), 0, 1.102547625794761)
((2, 1, -1, -1, 6, 9, 6, 2), 0, 1.1034422398078718)
((2, 1, -1, -1, 6, 9, 6, 2), 0, 1.1041794838607413)
((2, 1, -1, -1, 6, 9, 6, 2), 0, 1.1052194940327706)
((2, 1, -1, -1, 6, 9, 6, 2), 0, 1.1061403363725881)
((2, 1, -1, -1, 6, 9, 6, 2), 0, 1.1086023779969427)
((2, 1, -1, -1, 6, 9, 6, 2), 0, 1.1095665540939281)
((2, 1, -1, -1, 6, 9, 6, 2), 0, 1.1105119142174067)
((2, 1, -1, -1, 6, 9, 6, 2), 0, 1.1113335450605504)
((2, 1, -1, -1, 6, 9, 6, 2), 0, 1.11211754395668)
((2, 1, -1, -1, 6, 9, 6, 2), 0, 1.1128947006806251)
((2, 1, -1, -1, 6, 9, 6, 2), 0, 1.113781902340536)
((2, 1, -1, -1, 6, 9, 6, 2), 0, 1.1151759949231081)
((0, 0, 2, 13, -10, 26, 9, 3), 0, 1.1165655260575575)
((-2, -3, -4, -7, -10, -80, -47, -8), 0, 1.1180787864723414)
((-2, -3, -4, -7, -10, -80, -47, -8), 0, 1.118965417951237)
((-2, -3, -4, -7, -10, -80, -47, -8), 0, 1.1197847680703192)
((-2, -3, -4, -7, -10, -80, -47, -8), 0, 1.120610960361586)
((-2, -3, -4, -7, -10, -80, -47, -8), 0, 1.1216771988603222)
((-2, -3, -4, -7, -10, -80, -47, -8), 0, 1.1225986113811552)
((-4, -4, -2, 11, 5, 1, 4, 1), 0, 1.1244397258797751)
((0, -1, -3, -11, -14, -16, -2, -3), 0, 1.1256815801312443)
((0, -1, -3, -11, -14, -16, -2, -3), 0, 1.1272051038043047)
((0, -1, -3, -11, -14, -16, -2, -3), 0, 1.1279531812964663)
((0, -1, -3, -11, -14, -16, -2, -3), 0, 1.1287537154420413)
((0, -1, -3, -11, -14, -16, -2, -3), 0, 1.1295092052874025)
((0, -1, -3, -11, -14, -16, -2, -3), 0, 1.1302669758568253)
((0, -1, -3, -11, -14, -16, -2, -3), 0, 1.1312077745321807)
((0, -1, -3, -11, -14, -16, -2, -3), 0, 1.1321679593620586)
((0, -1, -3, -11, -14, -16, -2, -3), 0, 1.1333328391764534)
((0, -1, -3, -11, -14, -16, -2, -3), 0, 1.1342924538253158)
((0, -1, -3, -11, -14, -16, -2, -3), 0, 1.1349755306817255)
((0, -1, -3, -11, -14, -16, -2, -3), 0, 1.136208262036949)
((0, -1, -3, -11, -14, -16, -2, -3), 0, 1.1371507712553504)
((0, -1, -3, -11, -14, -16, -2, -3), 0, 1.138351002292698)
((0, -1, -3, -11, -14, -16, -2, -3), 0, 1.1392735551755615)
((0, -1, -3, -11, -14, -16, -2, -3), 0, 1.1410496690384295)
((0, -1, -3, -11, -14, -16, -2, -3), 0, 1.1421997241464248)
((0, -1, -3, -11, -14, -16, -2, -3), 0, 1.1430846450822743)
((0, -1, -3, -11, -14, -16, -2, -3), 0, 1.144159436296241)
((0, -1, -3, -11, -14, -16, -2, -3), 0, 1.145436641770663)
((1, 2, 1, 6, 9, 38, 10, -1), 0, 1.1464304672804475)
((1, 2, 1, 6, 9, 38, 10, -1), 0, 1.1472960020617746)
((1, 2, 1, 6, 9, 38, 10, -1), 0, 1.1482157040395615)
((1, 2, 1, 6, 9, 38, 10, -1), 0, 1.1494541372049385)
((1, 2, 1, 6, 9, 38, 10, -1), 0, 1.1504850244807219)
((1, 2, 1, 6, 9, 38, 10, -1), 0, 1.15156209641875)
((1, 2, 1, 6, 9, 38, 10, -1), 0, 1.1525114478093361)
((-3, -5, -7, -18, -32, 7, -11, -4), 0, 1.154191201080607)
((-1, -2, -3, -1, -13, 38, 3, 0), 0, 1.155222658537406)
((-1, -2, -3, -1, -13, 38, 3, 0), 0, 1.158512602996073)
((-1, -2, -3, -1, -13, 38, 3, 0), 0, 1.1603662614770311)
((-1, -2, -3, -1, -13, 38, 3, 0), 0, 1.161650879304653)
((-1, -2, -3, -1, -13, 38, 3, 0), 0, 1.1630694896708857)
((-1, -2, -3, -1, -13, 38, 3, 0), 0, 1.1639184892027672)
((-1, -2, -3, -1, -13, 38, 3, 0), 0, 1.1646762597721898)
((-1, -2, -3, -1, -13, 38, 3, 0), 0, 1.1655600403460087)
((-1, -2, -3, -1, -13, 38, 3, 0), 0, 1.1664187329551512)
((-1, -2, -3, -1, -13, 38, 3, 0), 0, 1.1680813807959614)
((-3, -4, -1, -2, -27, 23, 5, 0), 0, 1.1693471826500759)
((-3, -4, -1, -2, -27, 23, 5, 0), 0, 1.1701135059347292)
((-3, -4, -1, -2, -27, 23, 5, 0), 0, 1.1706409233739434)
((-3, -4, -1, -2, -27, 23, 5, 0), 0, 1.1726023460668058)
((-3, -4, -1, -2, -27, 23, 5, 0), 0, 1.17375867316597)
((-3, -4, -1, -2, -27, 23, 5, 0), 0, 1.1755707084328062)
((1, 0, -3, -5, -23, -17, -3, 1), 0, 1.1765839200971133)
((0, 2, 3, -2, -20, -6, 4, 0), 0, 1.1775372627548069)
((0, 2, 3, -2, -20, -6, 4, 0), 0, 1.1783970957259802)
((0, 2, 3, -2, -20, -6, 4, 0), 0, 1.179186226251248)
((0, 2, 3, -2, -20, -6, 4, 0), 0, 1.1799360142864554)
((0, 2, 3, -2, -20, -6, 4, 0), 0, 1.1807165920964928)
((0, 2, 3, -2, -20, -6, 4, 0), 0, 1.1823855119284719)
((0, 2, 3, -2, -20, -6, 4, 0), 0, 1.1835315757693594)
((0, 1, 1, 13, 40, 9, 5, 2), 0, 1.1849598792128537)
((0, 1, 1, 13, 40, 9, 5, 2), 0, 1.1860631794775887)
((0, 1, 1, 13, 40, 9, 5, 2), 0, 1.1869994167048212)
((0, 1, 1, 13, 40, 9, 5, 2), 0, 1.1878746445634096)
((0, 1, 1, 13, 40, 9, 5, 2), 0, 1.1889260583557462)
((0, 1, 1, 13, 40, 9, 5, 2), 0, 1.1917473140197818)
((0, 1, 1, 13, 40, 9, 5, 2), 0, 1.1945343588228956)
((0, 1, 1, 13, 40, 9, 5, 2), 0, 1.1994059854181907)
((0, -7, -1, 0, 7, 26, 2, -2), 0, 1.2010960019477384)
((0, -7, -1, 0, 7, 26, 2, -2), 0, 1.2020995205347842)
((0, -7, -1, 0, 7, 26, 2, -2), 0, 1.2032193560489648)
((0, -7, -1, 0, 7, 26, 2, -2), 0, 1.2042610767640403)
((0, -7, -1, 0, 7, 26, 2, -2), 0, 1.2056625816998123)
((-2, -1, 0, -2, -52, 13, -4, -1), 0, 1.2069591733287566)
((-3, 2, 0, -3, 71, 25, -4, -2), 0, 1.2081229127811206)
((-3, 2, 0, -3, 71, 25, -4, -2), 0, 1.2090517376551533)
((-3, 2, 0, -3, 71, 25, -4, -2), 0, 1.2103369256637906)
((-3, 2, 0, -3, 71, 25, -4, -2), 0, 1.2112851366923456)
((-3, 2, 0, -3, 71, 25, -4, -2), 0, 1.2123707613456043)
((-3, 2, 0, -3, 71, 25, -4, -2), 0, 1.2133811221048347)
((-3, 2, 0, -3, 71, 25, -4, -2), 0, 1.2141873580605635)
((-3, 2, 0, -3, 71, 25, -4, -2), 0, 1.2149280231995252)
((-3, 2, 0, -3, 71, 25, -4, -2), 0, 1.2157165835437775)
((-3, 2, 0, -3, 71, 25, -4, -2), 0, 1.216525100223568)
((-3, 2, 0, -3, 71, 25, -4, -2), 0, 1.2173524328768655)
((-3, 2, 0, -3, 71, 25, -4, -2), 0, 1.2181649408237634)
((-3, 2, 0, -3, 71, 25, -4, -2), 0, 1.2205471571059665)
((-3, 2, 0, -3, 71, 25, -4, -2), 0, 1.2221556377503167)
((-3, -7, -4, 5, 57, 32, 0, 0), 0, 1.2235366161695354)
((2, 6, 8, 0, -45, 34, 8, 0), 0, 1.2245047835336285)
((2, 6, 8, 0, -45, 34, 8, 0), 0, 1.225357204151602)
((2, 6, 8, 0, -45, 34, 8, 0), 0, 1.2261765542706844)
((2, 6, 8, 0, -45, 34, 8, 0), 0, 1.2273870485663083)
((-3, -5, -5, -12, -17, 4, -5, -2), 0, 1.2290730738287483)
((-3, -5, -5, -12, -17, 4, -5, -2), 0, 1.2298542218198012)
((-3, -5, -5, -12, -17, 4, -5, -2), 0, 1.230602869492978)
((-3, -5, -5, -12, -17, 4, -5, -2), 0, 1.231384587665046)
((-3, -5, -5, -12, -17, 4, -5, -2), 0, 1.2321577531218837)
((-3, -5, -5, -12, -17, 4, -5, -2), 0, 1.2329155236913063)
((-3, -5, -5, -12, -17, 4, -5, -2), 0, 1.233685838243067)
((-3, -5, -5, -12, -17, 4, -5, -2), 0, 1.2346334790906068)
((-3, -5, -5, -12, -17, 4, -5, -2), 0, 1.2357487531566647)
((-3, -5, -5, -12, -17, 4, -5, -2), 0, 1.2369170540571515)
((-3, -5, -5, -12, -17, 4, -5, -2), 0, 1.2383738665514141)
((-3, -5, -5, -12, -17, 4, -5, -2), 0, 1.2396185717079602)
((-3, -5, -5, -12, -17, 4, -5, -2), 0, 1.2410166555576398)
((-3, -5, -5, -12, -17, 4, -5, -2), 0, 1.2422157462329566)
((1, 9, 12, 24, 112, 19, 6, 3), 0, 1.2433840471334434)
((-3, -8, -3, 17, 1, -18, -4, -5), 0, 1.2443619075747978)
((-3, -8, -3, 17, 1, -18, -4, -5), 0, 1.2451960824002797)
((-3, -8, -3, 17, 1, -18, -4, -5), 0, 1.2459926252787472)
((-3, -8, -3, 17, 1, -18, -4, -5), 0, 1.2471392593006503)
((-3, -8, -3, 17, 1, -18, -4, -5), 0, 1.2479403636272408)
((-3, -8, -3, 17, 1, -18, -4, -5), 0, 1.2488446707176126)
((-3, -8, -3, 17, 1, -18, -4, -5), 0, 1.249730732015493)
((-3, -8, -3, 17, 1, -18, -4, -5), 0, 1.2506019686069736)
((-3, -8, -3, 17, 1, -18, -4, -5), 0, 1.2513990816664566)
((-3, -8, -3, 17, 1, -18, -4, -5), 0, 1.2520171578871144)
((-3, -8, -3, 17, 1, -18, -4, -5), 0, 1.2529590969245006)
((-3, -8, -3, 17, 1, -18, -4, -5), 0, 1.2544957347609145)
((-3, -8, -3, 17, 1, -18, -4, -5), 0, 1.2580622170120348)
((-3, -8, -3, 17, 1, -18, -4, -5), 0, 1.2591615260096622)
((-4, -8, -15, -15, -9, -12, -3, -5), 0, 1.2600937719697873)
((-4, -8, -15, -15, -9, -12, -3, -5), 0, 1.2610682113250493)
((-4, -8, -15, -15, -9, -12, -3, -5), 0, 1.2620723000931107)
((-4, -8, -15, -15, -9, -12, -3, -5), 0, 1.262899632746408)
((-4, -8, -15, -15, -9, -12, -3, -5), 0, 1.2636676665741073)
((-4, -8, -15, -15, -9, -12, -3, -5), 0, 1.2647971951655492)
((0, 16, 9, 12, -25, -8, -1, 0), 0, 1.2662694025472268)
((0, 16, 9, 12, -25, -8, -1, 0), 0, 1.2671127002689544)
((0, 16, 9, 12, -25, -8, -1, 0), 0, 1.2679001202511762)
((0, 16, 9, 12, -25, -8, -1, 0), 0, 1.2686219694166307)
((0, 16, 9, 12, -25, -8, -1, 0), 0, 1.2695428117564482)
((0, 16, 9, 12, -25, -8, -1, 0), 0, 1.2704516802949433)
((0, 16, 9, 12, -25, -8, -1, 0), 0, 1.2716034459459844)
((0, 16, 9, 12, -25, -8, -1, 0), 0, 1.2737553090979794)
((0, 16, 9, 12, -25, -8, -1, 0), 0, 1.2755000630050022)
((0, 16, 9, 12, -25, -8, -1, 0), 0, 1.2762931847973775)
((0, 16, 9, 12, -25, -8, -1, 0), 0, 1.2771193770886444)
((0, 16, 9, 12, -25, -8, -1, 0), 0, 1.2780442106955696)
((0, 16, 9, 12, -25, -8, -1, 0), 0, 1.278961631949295)
((0, 16, 9, 12, -25, -8, -1, 0), 0, 1.2801795385981187)
((1, -7, -3, 26, -11, -7, 1, 3), 0, 1.2811910397193798)
((-1, -4, 9, -3, 63, 12, 1, 1), 0, 1.2821073206110745)
((-1, -4, 9, -3, 63, 12, 1, 1), 0, 1.282989390641847)
((-1, -4, 9, -3, 63, 12, 1, 1), 0, 1.2839524263768018)
((-1, -4, 9, -3, 63, 12, 1, 1), 0, 1.2853790192772498)
((-1, -4, 9, -3, 63, 12, 1, 1), 0, 1.2862188959128855)
((-1, -4, 9, -3, 63, 12, 1, 1), 0, 1.2872583359038994)
((-1, -4, 9, -3, 63, 12, 1, 1), 0, 1.2887117273120698)
((-2, 0, 0, -3, -6, -5, -3, -2), 0, 1.2915272811659517)
((-2, 0, 0, -3, -6, -5, -3, -2), 0, 1.292432158437339)
((-2, 0, 0, -3, -6, -5, -3, -2), 0, 1.2932224293246377)
((-2, 0, 0, -3, -6, -5, -3, -2), 0, 1.2941221749668868)
((-2, 0, 0, -3, -6, -5, -3, -2), 0, 1.2965830762292105)
((-2, 0, 0, -3, -6, -5, -3, -2), 0, 1.299497271398751)
((-2, 0, 0, -3, -6, -5, -3, -2), 0, 1.3006992129791446)
((-2, 0, 0, -3, -6, -5, -3, -2), 0, 1.3027273468508047)
((1, -2, 0, -11, -11, -3, -3, -1), 0, 1.305288599971833)
((1, -2, 0, -11, -11, -3, -3, -1), 0, 1.3087074053399732)
((1, -2, 0, -11, -11, -3, -3, -1), 0, 1.3099977249777486)
((1, -2, 0, -11, -11, -3, -3, -1), 0, 1.311006375193933)
((1, -2, 0, -11, -11, -3, -3, -1), 0, 1.3117949355381853)
((1, -2, 0, -11, -11, -3, -3, -1), 0, 1.3126393736219437)
((1, -2, 0, -11, -11, -3, -3, -1), 0, 1.3143504868490599)
((1, -2, 0, -11, -11, -3, -3, -1), 0, 1.3152040478290643)
((1, -2, 0, -11, -11, -3, -3, -1), 0, 1.3159886169062092)
((1, -2, 0, -11, -11, -3, -3, -1), 0, 1.316891213453535)
((1, -2, 0, -11, -11, -3, -3, -1), 0, 1.317946048331964)
((-4, -6, -11, -6, -11, -5, -2, -2), 0, 1.318897110265596)
((-4, -6, -11, -6, -11, -5, -2, -2), 0, 1.319677117894618)
((-4, -6, -11, -6, -11, -5, -2, -2), 0, 1.3203961161549957)
((-4, -6, -11, -6, -11, -5, -2, -2), 0, 1.3211293689407577)
((-4, -6, -11, -6, -11, -5, -2, -2), 0, 1.3219481488788245)
((-4, -6, -11, -6, -11, -5, -2, -2), 0, 1.325704501408062)
((-4, -6, -11, -6, -11, -5, -2, -2), 0, 1.3266418789973253)
((1, 4, 4, -2, -1, -4, -2, 0), 0, 1.3276271517918794)
((-3, -4, -3, -10, -9, -7, -5, -2), 0, 1.3284191332222242)
((-3, -4, -3, -10, -9, -7, -5, -2), 0, 1.3292327815311527)
((-3, -4, -3, -10, -9, -7, -5, -2), 0, 1.330188975093923)
((-3, -4, -3, -10, -9, -7, -5, -2), 0, 1.3312820121003814)
((-3, -4, -3, -10, -9, -7, -5, -2), 0, 1.3321019324004792)
((-3, -4, -3, -10, -9, -7, -5, -2), 0, 1.3332861983693964)
((-3, -4, -3, -10, -9, -7, -5, -2), 0, 1.334063925274357)
((-3, -4, -3, -10, -9, -7, -5, -2), 0, 1.3348405118172866)
((-3, -4, -3, -10, -9, -7, -5, -2), 0, 1.3356456074109848)
((-3, -4, -3, -10, -9, -7, -5, -2), 0, 1.33646951897819)
((-3, -4, -3, -10, -9, -7, -5, -2), 0, 1.3372489564261967)
((-3, -4, -3, -10, -9, -7, -5, -2), 0, 1.3379901917461736)
((-3, -4, -3, -10, -9, -7, -5, -2), 0, 1.3387992786069793)
((-3, -4, -3, -10, -9, -7, -5, -2), 0, 1.3428008089728245)
((-3, -4, -3, -10, -9, -7, -5, -2), 0, 1.3439554255289428)
((-3, -4, -3, -10, -9, -7, -5, -2), 0, 1.3447690738378713)
((-3, -4, -3, -10, -9, -7, -5, -2), 0, 1.3455519323719702)
((-3, -4, -3, -10, -9, -7, -5, -2), 0, 1.346333080363023)
((-3, -4, -3, -10, -9, -7, -5, -2), 0, 1.3471604130163204)
((-3, -4, -3, -10, -9, -7, -5, -2), 0, 1.3481502472589972)
((-3, -4, -3, -10, -9, -7, -5, -2), 0, 1.3490750808659224)
((-3, -4, -3, -10, -9, -7, -5, -2), 0, 1.3498796062786054)
((-3, -4, -3, -10, -9, -7, -5, -2), 0, 1.3506818509672265)
((-3, -4, -3, -10, -9, -7, -5, -2), 0, 1.3526546772803962)
((-3, -4, -3, -10, -9, -7, -5, -2), 0, 1.353373675540774)
((-3, -4, -3, -10, -9, -7, -5, -2), 0, 1.3540983756113054)
((-3, -4, -3, -10, -9, -7, -5, -2), 0, 1.3550032528826927)
((-3, -4, -3, -10, -9, -7, -5, -2), 0, 1.355782120149684)
((-3, -4, -3, -10, -9, -7, -5, -2), 0, 1.3570211234960763)
((-3, -4, -3, -10, -9, -7, -5, -2), 0, 1.3586159197960577)
((-3, -4, -3, -10, -9, -7, -5, -2), 0, 1.3598480809702655)
((-3, -4, -3, -10, -9, -7, -5, -2), 0, 1.360954802321093)
((-3, -4, -3, -10, -9, -7, -5, -2), 0, 1.3625433266299052)
((-3, -4, -3, -10, -9, -7, -5, -2), 0, 1.3636962326429771)
((0, 0, -4, 14, -23, -2, 0, 1), 0, 1.3648554106472182)
((0, 0, -4, 14, -23, -2, 0, 1), 0, 1.3658275692784188)
((0, 0, -4, 14, -23, -2, 0, 1), 0, 1.366732446549806)
((0, 0, -4, 14, -23, -2, 0, 1), 0, 1.3676259202008862)
((0, 0, -4, 14, -23, -2, 0, 1), 0, 1.3684823320859674)
((0, 0, -4, 14, -23, -2, 0, 1), 0, 1.3695314651542425)
((0, 0, -4, 14, -23, -2, 0, 1), 0, 1.3706319145139008)
((1, 0, 2, -7, -10, 13, 7, 0), 0, 1.3722586409507427)
((1, 0, 2, -7, -10, 13, 7, 0), 0, 1.3737086112728207)
((1, 0, 2, -7, -10, 13, 7, 0), 0, 1.3751129671136695)
((1, 0, 2, -7, -10, 13, 7, 0), 0, 1.376327452676401)
((1, 0, 2, -7, -10, 13, 7, 0), 0, 1.3778578185216461)
((1, 0, 2, -7, -10, 13, 7, 0), 0, 1.378737037647342)
((1, 0, 2, -7, -10, 13, 7, 0), 0, 1.3796253796692837)
((1, 0, 2, -7, -10, 13, 7, 0), 0, 1.3815799601899614)
((1, 0, 2, -7, -10, 13, 7, 0), 0, 1.3824996621677483)
((1, 0, 2, -7, -10, 13, 7, 0), 0, 1.3833498020616606)
((1, 0, 2, -7, -10, 13, 7, 0), 0, 1.3843835402425209)
((1, 0, 2, -7, -10, 13, 7, 0), 0, 1.3855489902379308)
((-2, -1, 0, -3, -47, -8, -3, -3), 0, 1.3865125961539009)
((-2, -6, -6, -1, 0, -10, -4, -1), 0, 1.3874733511647943)
((-2, -6, -6, -1, 0, -10, -4, -1), 0, 1.388301253999107)
((-2, -6, -6, -1, 0, -10, -4, -1), 0, 1.3891491131689577)
((-2, -6, -6, -1, 0, -10, -4, -1), 0, 1.3925046284443923)
((-2, -6, -6, -1, 0, -10, -4, -1), 0, 1.3942847335743678)
((-2, -6, -6, -1, 0, -10, -4, -1), 0, 1.3955146140245143)
((-2, -6, -6, -1, 0, -10, -4, -1), 0, 1.396311156902982)
((-2, -6, -6, -1, 0, -10, -4, -1), 0, 1.3999717190216379)
((-1, 0, 0, -2, 14, 11, 1, 0), 0, 1.401440505317223)
((-2, 1, -1, -2, 3, -4, -3, -1), 0, 1.4030153452816665)
((-2, 1, -1, -2, 3, -4, -3, -1), 0, 1.4037982038157655)
((-2, 1, -1, -2, 3, -4, -3, -1), 0, 1.4045565445662034)
((-2, 1, -1, -2, 3, -4, -3, -1), 0, 1.40528922717095)
((-2, 1, -1, -2, 3, -4, -3, -1), 0, 1.406249412000828)
((-2, 1, -1, -2, 3, -4, -3, -1), 0, 1.4074906960712819)
((-2, 1, -1, -2, 3, -4, -3, -1), 0, 1.4090381673469876)
((0, -1, 2, 6, -17, 3, 3, 1), 0, 1.4117738958587183)
((0, -1, 2, 6, -17, 3, 3, 1), 0, 1.4129353545870207)
((0, -1, 2, 6, -17, 3, 3, 1), 0, 1.4145449755934016)
((-2, -1, -1, -10, 4, 4, 2, 0), 0, 1.4169625430985575)
((-1, -4, -4, 4, 19, 2, -3, 0), 0, 1.4183064597517774)
((-1, -4, -4, 4, 19, 2, -3, 0), 0, 1.4201270477338441)
((-1, -4, -4, 4, 19, 2, -3, 0), 0, 1.421233198903656)
((-1, -4, -4, 4, 19, 2, -3, 0), 0, 1.4229745317245865)
((0, 2, 2, 11, -7, 13, 4, 1), 0, 1.4353850917050637)
((-2, -2, -2, -5, -15, -15, -2, -1), 0, 1.4569037232250122)
((-2, -3, -5, -12, -17, -11, -4, -4), 2, 1.4821251102587538)
((-3, -3, -3, 9, 18, 13, -2, -3), 0, 1.501865347191773)
((-1, 0, -3, -4, -16, 8, 2, 0), 0, 1.5241252140316985)
((1, -1, -2, -4, -6, -11, -1, -1), 0, 1.5492867320588266)
((-3, -2, 3, 10, -1, 10, 0, -10), 0, 1.5681409076939656)
((-3, -2, 3, 10, -1, 10, 0, -10), 0, 1.5884986506666272)
((7, 5, 4, 12, 98, 26, -2, -3), 0, 1.6150297434926666)
((9, 5, 2, 5, -52, 0, 72, 42), 0, 1.6332470269336405)
((-13, -17, -8, -25, -48, -48, -116, -45), 0, 1.6577380120866971)
((-11, 3, -3, -8, -34, -60, -2, 43), 0, 1.6789379124190558)
((14, 14, -4, -30, -15, 34, -10, 33), 0, 1.6981547231799679)
((-28, -3, 1, 38, 25, -45, -72, -18), 0, 1.7195724326601967)
((-12, -4, -15, -57, 0, 49, 40, 73), 0, 1.7424925691159172)
((-2, 4, 7, 30, -17, -78, 15, -29), 1, 1.765599154763663)
((8, -7, 0, 9, 11, 3, -35, 3), 0, 1.786444402504463)
((6, -3, 2, 5, -13, -35, 67, -19), 0, 1.8082737826777868)
((3, 7, 3, 11, 118, -15, 12, 2), 0, 1.8337739882280428)
((5, 7, -1, -9, -2, 33, 26, 13), 1, 1.8540849763574443)
((0, -6, -1, -4, -38, -3, -22, 18), 1, 1.8750020669061807)
((-1, 3, -2, 11, 0, -12, -5, -13), 1, 1.8942850186648756)
((-4, -4, -3, 0, 0, 9, 5, -1), 1, 1.9162329964893954)
((-4, 0, 2, 19, -10, -8, 3, -5), 1, 1.9374830727511063)
((2, -4, -4, 3, 18, -28, -1, 4), 1, 1.9583385837501832)
((-2, 6, -1, -5, 4, 5, 20, 4), 1, 1.9789551889038213)
((-3, 2, 0, -10, -2, -10, 12, 11), 1, 1.9960896985966134)
((-1, 2, 0, -2, -9, -5, 36, -5), 1, 2.020582394292716)
((1, 5, 2, 9, 19, 7, -3, -13), 1, 2.0435891982627723)
((-4, -3, -4, -6, -4, -11, -1, -4), 1, 2.0608320423484843)
((4, -1, 0, -3, 2, -8, -1, 0), 1, 2.0806623678819314)
((-1, -2, 0, 5, -3, 0, -5, 2), 1, 2.100827959852414)
((-2, -2, 0, -9, -1, 9, 8, -1), 1, 2.1289743754949884)
((-3, -3, -4, -10, -2, -9, -36, -3), 1, 2.1482596079777445)
((0, -2, -1, 1, 3, 8, 4, -9), 1, 2.1671434330256827)
((-1, -1, -5, -7, -13, 1, -10, 0), 1, 2.1863408576320724)
((-2, -2, -2, -6, 7, -6, 25, 17), 1, 2.204420727448343)
((-3, 0, 0, 4, -11, -2, -13, 3), 1, 2.231645730570084)
((-9, -3, -4, -9, -11, -4, -5, -9), 1, 2.2509771477150853)
((3, 1, -2, 12, 15, 21, 89, 13), 1, 2.2688774105115153)
((-3, 2, 1, 4, 6, 2, -8, 4), 1, 2.2861179738731656)
((-2, -2, -1, -1, -1, -11, 10, -11), 1, 2.312343449674968)
((-2, -2, 0, 10, -2, -22, -41, -13), 1, 2.3371913681436447)
((-2, -3, -4, -8, 3, -4, -5, -4), 1, 2.359974661155677)
((-4, -2, -4, -8, -4, -8, -2, -2), 1, 2.3821495710243132)
((-1, -1, -1, -4, -5, -13, -21, 0), 1, 2.4070630603097567)
((-1, 2, 3, -4, 4, 5, 9, 1), 1, 2.4332144125795616)
((-1, -2, -5, -6, -2, 1, -11, 1), 1, 2.4623318464913058)
((3, 0, 1, 5, 2, 11, -19, 0), 1, 2.4872630113882255)
((-1, -1, 1, 0, 5, 10, 12, -7), 1, 2.511137060682655)
((4, -3, -2, -14, -1, 3, -9, 3), 1, 2.537005603168838)
((-1, -3, 0, 2, -1, -8, -4, -7), 1, 2.559847624825453)
((-2, -2, -1, 13, 2, 0, 39, 2), 1, 2.583022632195043)
((2, 1, -1, -17, -1, 6, 21, -10), 1, 2.606432554142964)
((-3, 0, 0, -4, -3, -5, 13, 2), 1, 2.634164448187366)
((-2, -2, 0, -3, -1, -5, 4, 0), 1, 2.6580116989740734)
((-3, -2, -2, 2, 1, 1, -12, -5), 1, 2.6808725366041957)
((-2, -2, -3, -2, -2, -2, -22, -8), 1, 2.7028034089982547)
((0, -1, -1, 1, 1, -11, 4, 0), 1, 2.7404781195886256)
((0, 0, -3, 1, 1, 6, -21, 3), 1, 2.7636844869140607)
((29, -3, -2, -9, 0, 15, -14, -4), 1, 2.784766359776238)
((4, 0, -4, 10, 0, -5, -3, 18), 1, 2.806440080532367)
((-8, -3, -3, -3, -6, 0, 8, -4), 1, 2.8387300016136123)
((2, -2, 0, -1, -1, -9, 1, -8), 1, 2.8610639919855356)
((-2, -3, -4, -13, 0, -4, -17, 0), 1, 2.8819366084150735)
((-2, -3, -1, 6, -2, -1, 3, -11), 1, 2.9032322991580135)
((-6, 0, -1, -1, 3, 5, -2, 9), 1, 2.930954500125155)
((3, 0, 2, 9, 0, 6, 3, 1), 1, 2.956274528474555)
((-1, -2, -3, -7, -5, -7, 7, -2), 1, 2.9797654161266576)
((-1, -2, 1, -7, 0, 1, 5, 0), 1, 3.000663690701887)
((-2, 2, 3, 4, 1, 7, 5, -1), 1, 3.0224537283851505)
((-2, -3, -2, -3, 2, 3, -7, -2), 1, 3.0470045825448207)
((-2, -4, -6, -8, -3, -4, -4, -4), 1, 3.0683293525195445)
((0, -2, 0, 5, 1, -16, -1, 4), 1, 3.092419500418798)
((-3, 0, -1, 5, 2, -3, -1, 0), 1, 3.1163043831525195)
((0, 2, 2, 6, 0, -8, 14, 2), 1, 3.140441285895033)
((-1, -3, -3, -6, -2, -3, -10, 2), 1, 3.167580761864469)
((-3, 1, -1, -11, 0, 6, 3, 5), 1, 3.189735145216552)
((-2, -2, 0, 4, 0, -1, -1, -5), 1, 3.2133657272174196)
((-2, -3, -1, -1, -1, 2, -1, -1), 1, 3.235231598975727)
((-2, 0, -1, 9, 47, 2, 2, 1), 1, 3.26579273121838)
((-2, -1, -3, -15, -100, -5, -3, -2), 1, 3.2913014894838666)
((-2, 1, -3, -3, -18, -3, -3, -3), 1, 3.3135664879529303)
((-3, -10, -7, -14, -11, 2, -1, -3), 1, 3.3377336102892587)
((-1, -5, -6, -7, -63, 15, -5, -3), 1, 3.3639317174023238)
((5, 0, 0, 1, -10, -3, -3, 4), 1, 3.382652470679867)
((-5, 6, -8, -8, -93, -10, -8, -3), 1, 3.4032451282308593)
((-4, 30, 10, 3, -18, 1, 5, -24), 1, 3.424417089693465)
((-2, -5, -4, -6, -2, -24, -7, 5), 1, 3.451521214439948)
((1, -4, 1, -3, -14, 2, -1, -4), 1, 3.4827494584705807)
((1, -6, 0, 5, 29, 2, 3, 5), 1, 3.5073151373366502)
((-2, -4, 1, 2, -3, -10, -5, -1), 1, 3.535190716996925)
((0, 0, 3, -3, 15, 18, -1, -1), 1, 3.5651508784493813)
((0, -4, 0, 6, 2, -5, 0, 1), 0, 3.5942420840344185)
((-1, -1, 1, 8, 57, 8, 2, 3), 0, 3.623654301531107)
((2, 3, 2, 5, -17, -9, 1, 1), 0, 3.6475682634966122)
((-3, -3, -4, 0, 14, -1, -5, -3), 0, 3.6760505157572374)
((-3, -4, -8, -7, -2, -30, -8, -4), 0, 3.7061908544105497)
((-3, -5, -6, -15, -77, -32, -21, -5), 0, 3.7435935886565908)
((41, 40, 3, -8, -17, -34, 7, 99), 0, 3.7790896375872447)
((-6, -53, 3, 37, -19, 56, 23, -10), 0, 3.8061772270842824)
((-36, 13, 4, 36, 34, 88, 18, -126), 2, 3.840348745516239)
((-23, -36, -23, -24, 3, 1, -13, -126), 2, 3.8676843637549614)
((9, 7, -7, 2, 88, 15, -1, -34), 2, 3.894829541534551)
((-5, -15, -7, -18, 14, -16, -8, 2), 2, 3.9283282463683746)
((5, 9, 3, 19, 59, 7, 8, 16), 2, 3.971061032746066)
((2, 2, -4, -4, 2, 1, 1, 7), 2, 4.013328551415218)
((-6, -12, -10, -16, -50, -38, -29, -15), 2, 4.046402471392593)
((2, 0, -4, 0, 21, 1, 2, -31), 2, 4.081086012376349)
((1, 2, 1, -2, 4, -2, 1, 6), 2, 4.107623947374573)
((5, 2, 3, 10, 84, 30, 9, 11), 2, 4.1324336637152195)
((-2, -3, -4, -6, -88, -5, -2, -30), 2, 4.1594328751548755)
((-20, -4, -3, -1, 61, -11, -4, -92), 2, 4.191344766222933)
((-1, 0, -2, -1, -33, -3, -2, 0), 2, 4.220011757132537)
((1, 0, 3, 11, 33, 18, -2, -81), 2, 4.247350796457352)
((-10, -7, -5, -11, -21, -6, -10, 7), 2, 4.2809988887172015)
((2, -2, -1, 3, -23, -5, 0, 22), 2, 4.310618081922468)
((-1, 0, 0, -3, 2, 1, -3, 5), 2, 4.338308922933764)
((-1, -2, -5, -10, -19, -6, -3, -17), 2, 4.365832130726542)
((4, 1, 3, 3, 5, 3, 2, -15), 2, 4.396414359666763)
((6, -1, 0, 8, 74, -3, 2, 14), 2, 4.423269315309532)
((-6, -3, -6, -14, -57, -9, -6, -5), 2, 4.458097112090175)
((2, 2, 2, 5, 44, 7, 0, 7), 2, 4.4736927032224925)
((-3, -1, -3, 3, 0, 3, -3, -67), 2, 4.503240053619822)
((5, -1, 0, -5, 31, 0, -2, 3), 2, 4.529732374136818)
((-1, -2, -2, -2, 16, -3, 3, 11), 2, 4.5561648256471985)
((-3, -1, -1, -1, 25, 5, -1, 4), 2, 4.583347065192787)
((-4, -2, -2, -7, -5, -8, -8, -16), 2, 4.611667386045048)
((-3, -3, -5, -7, -69, -8, -4, -14), 2, 4.638484139559786)
((-1, 0, -1, -5, 21, -3, 0, 23), 2, 4.6657815556704785)
((6, -4, -2, 1, -11, -2, 1, 9), 2, 4.700307726693993)
((1, -1, -1, 1, 8, 4, 6, -20), 2, 4.740468426511365)
((-5, -1, 0, 0, -15, -1, -5, -5), 2, 4.770229594789458)
((1, -2, -3, -3, 8, -3, -1, 1), 2, 4.798563029805072)
((-1, -2, -3, -3, 33, -1, -2, 11), 2, 4.82456271392479)
((-8, -2, 1, -4, -25, 3, -2, -19), 2, 4.847856889126591)
((1, -3, -2, -1, -1, -4, -1, 5), 2, 4.872416866182507)
((2, 1, 1, 5, -6, 5, 2, 5), 2, 4.898025406125683)
((-1, 0, -1, 2, 76, 9, 2, -3), 2, 4.922211344435518)
((2, -1, 0, 3, 16, 9, 4, -3), 2, 4.946118464228839)
((2, -1, -1, -5, -33, -5, 0, 1), 2, 4.968661140852387)
((-2, -2, -2, -5, -67, -4, -3, -2), 2, 4.997364053165959)
((-7, 0, 0, 1, 8, 2, -5, -22), 2, 5.022433201868597)
((3, -2, -3, -7, -31, -6, -3, 1), 2, 5.044785438033013)
((-1, 0, -1, -3, -35, -5, 1, 5), 2, 5.072069169799336)
((-2, 0, -1, 1, 1, -2, -4, -7), 2, 5.098981143543641)
((0, -3, -2, -2, -10, -4, -2, -7), 2, 5.123888360837915)
((-5, 0, -2, -1, -20, -3, -3, -10), 2, 5.147713374565023)
((0, -1, -2, -5, 4, 1, -2, -3), 2, 5.172815023585538)
((0, -2, -1, -3, -14, -4, -1, 2), 2, 5.195810994116302)
((-2, -2, -2, -4, -19, 1, 0, 0), 2, 5.218199721865701)
((-2, -1, -2, 0, 14, 0, 0, 3), 2, 5.239741160626264)
((-1, -2, 0, 2, 5, 2, 0, -2), 2, 5.262846605911979)
((0, -2, -5, -2, 4, 0, -1, -2), 2, 5.288256152680791)
((-3, -1, -6, -11, -32, -9, -2, -1), 2, 5.3138664031670135)
((0, 0, 2, 6, -12, 0, 1, -1), 2, 5.340553155410248)
((0, -1, 1, 0, 26, 3, 1, 0), 2, 5.364652426205748)
((-2, -3, -4, -4, -21, -4, -3, -2), 2, 5.390343642396152)
((-1, -2, -1, 3, -9, -7, -5, -3), 2, 5.414426377942205)
((-1, 0, 2, 11, 11, 2, -2, -1), 2, 5.446679237257452)
((-2, -4, -11, -27, -7, 1, -1, 0), 2, 5.486376950090345)
((-1, -3, -11, -5, -4, -4, 0, 0), 2, 5.515127187428193)
((-2, -2, -8, -16, -2, 0, 1, -2), 2, 5.542486753269561)
((-2, -5, -15, -41, -17, -7, -7, -4), 2, 5.563695206317149)
((0, 2, 2, -29, 6, 2, -6, -4), 2, 5.584522208265458)
((0, 2, 5, -7, -4, -6, -2, -1), 2, 5.61292976681307)
((-1, -3, 4, 17, 5, -2, 1, -3), 2, 5.6340025167790015)
((3, 4, 4, -12, -5, 13, 26, 1), 0, 5.660263913984773)
((-13, -10, -10, 5, 7, -16, -48, -1), 0, 5.685793198766812)
((-2, -4, 0, -4, -42, 2, -18, -12), 0, 5.712617364634751)
((4, 3, 2, 7, 5, 4, 20, 9), 1, 5.736010751333226)
((1, -3, -2, -4, 7, -14, -25, 5), 1, 5.761899820335962)
((-5, -6, -5, -7, -5, -3, 29, 2), 1, 5.785326277533328)
((79, 2, -4, 0, 67, -8, 21, 15), 0, 5.812348866394614)
((-4, -8, -4, -14, 53, 0, 7, 103), 0, 5.837441392518883)
((-31, -21, -9, -3, -12, 8, -6, 89), 0, 5.859618583111581)
((54, 47, 4, -4, -65, -5, 2, 67), 0, 5.881760992662341)
((-89, 94, 7, 10, -89, -6, 7, -128), 0, 5.904207878875306)
((5, -1, 4, 14, -39, -5, -14, -20), 0, 5.933794001581682)
((27, -9, -4, -18, 0, -29, -12, 60), 3, 5.957889281110074)
((29, -2, 0, 0, -12, 42, 14, 26), 3, 5.98579793126924)
((15, 0, -5, -3, 15, 1, -2, 23), 0, 6.0161617808805765)
((-24, 2, 3, 10, 25, 8, 9, 21), 0, 6.0395317901574215)
((-10, 2, -2, -6, -20, 2, -4, 25), 0, 6.0621029758317375)
((-12, 3, 1, 3, 26, 5, 1, -37), 0, 6.089579998962271)
((-20, -2, -1, 2, 11, -3, 7, 4), 0, 6.110684679065063)
((42, 2, 1, 2, 0, 4, -2, -7), 0, 6.137100025144983)
((-13, 1, 0, -3, 5, -5, -5, -11), 0, 6.159260680488234)
((4, 2, 2, 5, -32, 1, -1, 30), 0, 6.180540406162745)
((2, 2, 2, 6, -13, 4, -6, -62), 0, 6.2030574246406)
((-15, -1, -1, -4, -11, -1, -2, -16), 0, 6.227017001087336)
((-16, -1, 0, 6, -4, -2, -5, -24), 0, 6.250218236783632)
((6, -1, -1, -6, -6, -2, 1, 17), 0, 6.272104064877476)
((-6, -2, -3, -6, -33, 1, 0, 35), 0, 6.29464845204407)
((-17, 1, 2, 5, 30, 6, -4, -92), 0, 6.322700787819109)
((1, -4, -3, -6, 22, 1, -6, -13), 0, 6.345975576866388)
((19, 3, -2, -1, -15, -3, 1, 24), 0, 6.369349577410341)
((-4, -4, -5, -3, 38, -4, -2, 17), 0, 6.391900806749119)
((0, -2, 3, 10, 16, 11, 5, -2), 0, 6.413895539416899)
((-8, -4, -5, -7, -3, -1, -4, -19), 0, 6.440580010936072)
((-24, -6, -2, 0, -6, -4, -7, -35), 0, 6.473026161615528)
((-8, -1, 2, 0, 1, 6, 1, -8), 0, 6.493366799157728)
((-1, -4, -2, -8, -10, -6, -4, -7), 0, 6.525371629731291)
((-6, 1, 3, 12, -60, 11, 6, -8), 0, 6.5496653322530305)
((10, -3, -3, -4, 3, -1, -3, -17), 0, 6.573615215622504)
((-19, -5, -3, -8, 8, -6, -4, -4), 0, 6.595697185985635)
((3, 0, -3, -6, -13, -8, -4, -4), 0, 6.620772036498427)
((-4, 0, -1, -1, 3, -6, -4, -19), 0, 6.644584506243197)
((-7, -2, -1, 4, -18, 8, 3, -14), 0, 6.667213280200065)
((2, -2, 0, 2, -18, -5, -9, -84), 0, 6.686696935676169)
((1, -2, -1, -12, -20, -2, -1, 17), 0, 6.704354301360053)
((1, 0, 0, -2, -19, -1, 4, 31), 0, 6.71380505168976)
((1, 0, 0, -2, -19, -1, 4, 31), 0, 6.715142696351811)
((1, 0, 0, -2, -19, -1, 4, 31), 0, 6.7163816996982035)
((1, 0, 0, -2, -19, -1, 4, 31), 0, 6.717361270682604)
((1, 0, 0, -2, -19, -1, 4, 31), 0, 6.718169217181378)
((1, 0, 0, -2, -19, -1, 4, 31), 0, 6.718913303406432)
((1, 0, 0, -2, -19, -1, 4, 31), 0, 6.719648836916256)
((1, 0, 0, -2, -19, -1, 4, 31), 0, 6.7204556430530005)
((1, 0, 0, -2, -19, -1, 4, 31), 0, 6.721285826611374)
((1, 0, 0, -2, -19, -1, 4, 31), 0, 6.724625376818379)
((1, 0, 0, -2, -19, -1, 4, 31), 0, 6.729668627899299)
((11, 1, -3, -4, -13, -5, 3, 25), 0, 6.731439039952013)
((11, 1, -3, -4, -13, -5, 3, 25), 0, 6.733781913744156)
((11, 1, -3, -4, -13, -5, 3, 25), 0, 6.735060829761625)
((11, 1, -3, -4, -13, -5, 3, 25), 0, 6.736166980931436)
((11, 1, -3, -4, -13, -5, 3, 25), 0, 6.737006287386056)
((11, 1, -3, -4, -13, -5, 3, 25), 0, 6.737854716736923)
((11, 1, -3, -4, -13, -5, 3, 25), 0, 6.738732795500588)
((11, 1, -3, -4, -13, -5, 3, 25), 0, 6.740086405231069)
((-12, -1, -1, -7, 8, -4, -4, -13), 0, 6.741255846493586)
((6, 0, 0, 5, -11, 0, 5, 25), 0, 6.7430484956059)
((6, 0, 0, 5, -11, 0, 5, 25), 0, 6.743992715367348)
((6, 0, 0, 5, -11, 0, 5, 25), 0, 6.744869653768982)
((6, 0, 0, 5, -11, 0, 5, 25), 0, 6.753316315330628)
((6, 0, 0, 5, -11, 0, 5, 25), 0, 6.75529997508309)
((0, -3, -2, -2, -8, -3, 0, 5), 0, 6.756372485572995)
((-3, -5, -5, -5, 5, -3, -1, 23), 0, 6.7573224071445965)
((-3, -5, -5, -5, 5, -3, -1, 23), 0, 6.758214740433646)
((-3, -5, -5, -5, 5, -3, -1, 23), 0, 6.759165802367278)
((-3, -5, -5, -5, 5, -3, -1, 23), 0, 6.760074670905772)
((-3, -5, -5, -5, 5, -3, -1, 23), 0, 6.7619363119209455)
((-3, -5, -5, -5, 5, -3, -1, 23), 0, 6.763347509933979)
((-1, 0, 0, 2, 17, 1, -3, -2), 0, 6.7774982623733555)
((-1, 0, 0, 2, 17, 1, -3, -2), 0, 6.779725959600395)
((1, 1, 1, 5, -13, 8, 9, 16), 0, 6.7875254657095985)
((1, 1, 1, 5, -13, 8, 9, 16), 0, 6.792076080393242)
((-4, -4, -2, 3, -8, -2, -4, -54), 0, 6.815535037908485)
((-5, -1, -1, 1, 5, 3, 3, 16), 0, 6.838621667220693)
((4, -1, -4, -7, 23, -4, -4, 8), 0, 6.857189041805102)
((-2, -3, -2, -5, 0, -2, -2, 2), 0, 6.877402528980875)
((-3, -3, -2, -3, -7, -5, -2, -6), 0, 6.899065416297712)
((-2, -1, 0, -2, 18, -4, -8, -49), 0, 6.918821048118146)
((5, -3, -1, -3, -23, -6, -5, -1), 0, 6.940983414004444)
((0, 1, 0, 3, 8, 6, 7, 19), 0, 6.95987237068152)
((2, -1, -1, -2, -10, -4, -1, 21), 0, 6.979787083005242)
((-4, -1, -3, -4, 3, -3, -2, 10), 0, 6.999221702914024)
((-1, -2, -1, -1, -12, 0, 1, 4), 0, 7.019132423970638)
((-2, 0, -1, 0, 9, 1, 0, 0), 0, 7.040659608205817)
((2, 1, 1, 7, -12, 9, 5, 5), 0, 7.064440147813727)
((0, -2, -4, -4, -6, -3, -1, 4), 0, 7.0838000740094955)
((5, -1, -1, -3, -3, -6, -1, 5), 0, 7.104047201865177)
((0, 0, -2, 0, -2, 0, -4, -5), 0, 7.128299851353809)
((-1, -1, 1, -2, -2, 0, -1, 5), 0, 7.153311981954912)
((-27, 2, 0, -18, -18, -10, -3, 54), 0, 7.173496389898901)
((-26, -4, -1, -5, -3, -5, -6, 9), 0, 7.1934937784698505)
((-14, 5, 2, -1, 2, 0, 3, -40), 0, 7.215791277256791)
((2, -1, -4, -4, 9, -7, 3, 61), 0, 7.239569536140639)
((0, 2, -1, -5, 17, -3, -2, 9), 0, 7.258576520287896)
((-9, 4, 2, 2, 3, -1, 6, 109), 0, 7.278284256903039)
((-6, -4, -1, 3, 15, 7, -1, -35), 0, 7.299646088643762)
((-4, -2, -2, 0, 30, -5, -16, -87), 0, 7.319677688075633)
((2, -2, 0, 0, -1, 14, 12, 36), 0, 7.344074593361154)
((-4, -3, -2, -8, 30, -10, -12, -14), 0, 7.3618345916278045)
((-4, -2, -1, 2, -1, 0, -4, -14), 0, 7.383506601840886)
((-3, -1, -2, -7, 8, -4, -11, -67), 0, 7.402133275250894)
((-12, -4, -1, -5, 1, -5, -6, -5), 0, 7.420680693499765)
((-14, -2, -3, 0, 26, 3, -3, 7), 0, 7.4490500499193475)
((3, -4, -1, 3, -19, 1, 2, 0), 0, 7.474226392652875)
((1, -1, -2, -8, 13, -2, -4, -8), 0, 7.498171714574226)
((9, -2, -3, -1, 0, -1, 0, 0), 0, 7.517463789229167)
((-7, -4, -6, -3, -4, -2, -5, -30), 0, 7.537659030612448)
((-8, -2, -1, 0, 4, -4, -5, -6), 3, 7.557597690538815)
((2, 1, 1, -1, 2, 2, 4, 17), 3, 7.578714914623946)
((8, -3, -7, -14, -17, -13, -5, 3), 3, 7.602288478523277)
((-4, -1, -2, -3, -4, -1, -3, 1), 3, 7.621983671156082)
((-17, -4, -1, -1, 14, -8, -7, -22), 3, 7.642042639276691)
((6, 2, -1, -2, -10, 0, -1, -3), 3, 7.6647945723328785)
((13, 3, 1, 1, -13, 6, 15, 70), 3, 7.683324314970274)
((-16, 0, -2, 1, -26, -10, -12, -74), 3, 7.704265923302671)
((2, 3, 1, -1, -7, 2, 0, -4), 3, 7.724050064173873)
((5, 1, -1, 4, 23, 11, 6, 14), 3, 7.745190665680633)
((4, -1, -1, 0, 1, -4, -5, 16), 3, 7.766714999010736)
((4, 0, -1, -5, -10, -5, -1, 8), 3, 7.7876389317316566)
((-9, -2, 1, -2, -11, -1, -4, -12), 3, 7.806765653892141)
((3, -2, -2, -2, -2, 0, 0, -10), 3, 7.827016773014929)
((-3, -4, -1, -1, -4, 0, 1, 9), 3, 7.847773642698347)
((-1, -1, 0, 7, 13, 4, -3, -12), 3, 7.87385885397037)
((7, 1, -1, 0, 8, -5, -3, -6), 3, 7.8930180764487305)
((6, 2, 0, -2, 6, -1, 2, 5), 3, 7.913164282264691)
((-4, 0, 0, 2, -7, 3, -1, -5), 3, 7.9337865892284825)
((3, 1, 1, 2, 8, 4, 4, 10), 3, 7.958189196324157)
((1, -4, -4, -4, -7, -9, -5, -3), 3, 7.976430427367776)
((-1, -2, -2, -1, 10, -4, -3, -16), 3, 7.998854506340128)
((0, -1, 1, 4, -19, 4, 0, -5), 3, 8.018811412058986)
((1, -1, 0, -3, -5, -2, 3, 24), 3, 8.038007696303346)
((-9, -1, -4, -2, -7, -3, -2, -12), 3, 8.05499053784605)
((-4, -3, -4, -6, -19, -8, 0, 2), 3, 8.075424114893755)
((-23, -2, -1, 1, 9, 2, 0, 5), 3, 8.0950873773897)
((2, -2, 0, 0, -11, 3, 1, -1), 3, 8.11649767451673)
((3, -1, -1, 0, 27, 2, 1, -4), 3, 8.139376187758328)
((1, 0, -1, -3, -2, -4, -5, -3), 3, 8.162569440920409)
((8, 1, -2, 1, 12, 2, -2, -1), 3, 8.18215686934131)
((9, 0, -1, -2, -14, -2, -2, 9), 3, 8.202161100084444)
((-2, -2, -4, -4, 11, -3, -1, 10), 3, 8.222462395136583)
((-9, -2, 2, 4, 32, 11, 4, 7), 3, 8.242500836740641)
((9, 1, -1, 2, 21, 3, 1, -8), 3, 8.26341621674633)
((-2, -1, -4, -3, -6, -3, -2, -10), 3, 8.282371884602204)
((5, -1, 0, -2, -12, -3, -1, -5), 3, 8.302231289367436)
((-2, -2, -2, -2, 16, -2, 1, 3), 3, 8.322504075368807)
((0, -1, -2, 1, 36, 4, -3, -15), 3, 8.343398928857944)
((-17, -3, -2, -4, 3, 0, -3, 1), 3, 8.36815447800213)
((6, 1, 1, -2, -14, 4, 2, 6), 3, 8.38865533640965)
((3, -3, -5, -4, 12, -3, -3, -9), 3, 8.409535935373404)
((-3, 2, 1, 7, 37, 6, 2, 3), 3, 8.431465667405432)
((1, -3, -5, -7, -10, -7, -3, -7), 3, 8.457050259745962)
((4, -1, -1, 0, 1, -5, -3, -8), 3, 8.48458202025397)
((-9, -2, 0, -2, 10, 1, -2, -32), 3, 8.505876000453863)
((30, 0, 0, -5, -42, -9, -4, 7), 3, 8.525272988415633)
((1, 0, -2, -2, -5, -2, -2, 10), 3, 8.544286244554058)
((-4, -2, 2, -1, -53, 5, 3, 0), 3, 8.564386265707775)
((-3, 1, -1, -2, 0, -2, -1, -3), 3, 8.586906135090707)
((0, -3, -4, -11, -74, -4, -3, -6), 3, 8.605474650037147)
((-4, -2, -1, -1, -18, -5, -2, 7), 3, 8.624277509380903)
((-12, 1, 1, 0, -1, 4, 5, -11), 3, 8.643403091179357)
((1, -1, -2, -3, 2, 2, -2, 2), 3, 8.663260785401542)
((0, -7, -5, -3, 3, 0, -2, 3), 3, 8.686815533327366)
((-1, -4, -5, -8, -5, -7, -4, -5), 3, 8.705852737068437)
((-12, 0, 4, 3, -2, 3, 3, 2), 3, 8.72447256830626)
((-12, 0, 4, 3, -2, 3, 3, 2), 3, 8.743463587385087)
((-7, -1, 1, 11, 37, 4, 1, 9), 3, 8.765210291311183)
((-1, 1, -1, 4, 36, 1, -1, 3), 3, 8.785833168455989)
((-1, 1, -1, -1, -7, -2, -2, -3), 3, 8.805091602431023)
((-3, 0, 0, 3, -11, 4, 0, -1), 3, 8.826594839063558)
((9, -2, 0, 3, -10, -5, -3, -3), 3, 8.848504614760047)
((-5, 1, 0, -3, -3, -2, -1, 2), 3, 8.869694822015145)
((-4, -1, -2, -3, -10, -1, -2, -4), 3, 8.896181440721985)
((-12, -2, -1, -5, -13, -3, 0, 4), 3, 8.91618339074106)
((0, -3, -1, -2, 20, -4, -3, -2), 3, 8.935777661334143)
((-7, -3, -1, 1, 2, 1, 1, 0), 3, 8.955858296333338)
((-1, -1, -2, -6, -7, -6, -5, -8), 3, 8.97926536737618)
((3, -1, -3, -2, -3, -2, -3, -2), 3, 9.000303906481191)
((-19, 0, -1, -4, -14, -3, -3, -9), 3, 9.02023971550248)
((0, -4, -2, -12, -37, -9, -1, -7), 3, 9.03927977014863)
((-8, -1, -1, 1, 9, 2, 1, 0), 3, 9.057995391797034)
((1, 0, -2, 0, -16, -3, 0, 3), 3, 9.080133239899672)
((5, -1, -3, -2, 11, 0, -4, 0), 3, 9.101509326165777)
((0, -3, 0, -1, -11, -3, -3, -6), 3, 9.119537879690665)
((4, -2, -2, -3, -2, -6, -3, 0), 3, 9.138416573109465)
((2, -3, -2, -4, 3, -3, -4, -2), 3, 9.15854738403801)
((0, 1, 3, 5, 43, 5, 2, 2), 3, 9.179923470304118)
((1, 0, -2, 0, 5, -2, 0, -1), 3, 9.20619342022512)
((-2, -3, -2, 0, 2, -3, 1, 0), 3, 9.224979174138413)
((7, -3, -3, 0, -5, 1, -2, -1), 3, 9.247587421578729)
((-7, -4, -3, 1, 8, -1, -2, 1), 3, 9.268357975606516)
((3, -2, -2, 0, 7, -1, -3, -3), 3, 9.286743462447022)
((-4, -1, -6, -8, -6, -4, 0, 0), 3, 9.308100732739623)
((8, 0, 1, 2, -2, 0, 0, -1), 3, 9.331518067040744)
((10, 0, -3, -2, -18, 1, -1, 1), 3, 9.352688317960302)
((8, -1, -1, 2, 2, -4, -3, 0), 3, 9.371706705727867)
((-6, -2, -2, -4, 3, -2, -2, -2), 3, 9.39158549664762)
((2, -3, 0, -5, 27, -4, -3, -2), 3, 9.411410120370913)
((0, -2, -1, -1, 17, -1, -1, -2), 3, 9.431296323643867)
((-4, 1, 0, -2, 0, -5, -5, -3), 3, 9.458395886942228)
((1, 0, -1, -4, -7, -2, -2, -2), 3, 9.481293786338348)
((-2, -2, -4, -4, 3, -3, -3, -1), 3, 9.503416239553571)
((3, -1, -2, 0, -10, -3, -2, -1), 3, 9.52365139360793)
((0, -3, -4, -4, -9, 0, -1, -1), 3, 9.543859178973548)
((-2, -3, -1, -1, -4, -4, -4, -3), 3, 9.564650259517888)
((-1, 3, 2, 11, 7, 3, 2, -1), 3, 9.585797703196834)
((-4, -4, 0, -3, -9, 1, -2, -1), 3, 9.610094826804666)
((0, 0, 2, 0, 8, -4, -2, -1), 3, 9.63181587258507)
((-4, -2, -1, -8, -1, -1, -3, -3), 3, 9.651593741465103)
((1, 1, 1, 0, -9, 2, -2, -1), 3, 9.670089843422591)
((-2, -4, -3, -3, -3, -1, -1, -1), 3, 9.690129425388678)
((-3, -1, -3, -1, 3, 1, -2, -1), 3, 9.714557690630045)
((-3, -2, -1, 1, -2, -2, -1, -2), 3, 9.735851670829938)
((-5, -2, -2, -3, -14, -6, -1, -2), 3, 9.755903226597347)
((-2, -3, -4, -2, 0, -1, -2, -4), 3, 9.774321783936747)
((2, -1, 0, 2, 10, 0, 0, 0), 3, 9.796960821151892)
((-2, -1, -1, -3, 1, -1, 0, 0), 3, 9.817223343894986)
((0, 0, -3, -3, -5, 0, 0, 0), 3, 9.836452698638237)
((-1, 0, -1, 2, -14, -2, 2, -2), 3, 9.855797800127606)
((-4, 1, -2, 1, 2, -3, -1, -2), 3, 9.875184524831099)
((-1, -3, 1, -1, 1, -1, -2, -2), 3, 9.895690514867756)
((-2, -2, 0, -1, 10, 3, 0, -1), 3, 9.917979460939465)
((0, 1, -1, 3, -2, -3, -2, -1), 3, 9.937262412698159)
((-3, 0, -1, -5, 2, -1, -1, 1), 3, 9.958306653613322)
((-1, -3, -1, 4, 4, 2, -1, -3), 3, 9.978987119040681)
((0, -1, 1, -2, -3, -1, -1, -1), 3, 9.998125244821473)
((-1, -2, -3, -4, -2, 0, -2, -1), 3, 10.019375321083185)
((-2, 1, 2, -2, -1, -2, -1, -2), 3, 10.039349332232504)
((-2, -1, -1, -2, -5, -3, -1, -1), 3, 10.06309566097949)
((-2, 0, 1, 13, 18, 2, 1, -2), 3, 10.083558887439995)
((-1, 0, 0, -1, 1, -1, -1, -2), 3, 10.105109449096805)
((-1, 0, 0, 2, 0, 0, -2, -3), 3, 10.127830022197147)
((-1, -4, -6, -21, 2, -5, -3, -1), 3, 10.14893584266197)
((0, -2, -2, -5, 2, -2, 1, -1), 3, 10.16880151941837)
((0, -3, -6, -9, -5, -2, -4, -2), 3, 10.18800008438679)
((-2, 1, 0, 10, 3, -1, 0, -2), 3, 10.212384445689974)
((-2, -6, -8, -14, -4, -3, -3, -1), 3, 10.23091874977549)
((-1, -2, 1, 20, 3, 0, -2, -1), 3, 10.247944925075364)
((-3, -2, -1, -3, -2, -3, -3, -3), 0, 10.268937279518129)
((-3, -2, -1, -3, -2, -3, -3, -3), 0, 10.286640829864258)
((-2, -1, 2, -6, 1, -1, -2, 0), 0, 10.304914561225752)
((-1, -3, -1, 2, -5, 4, 0, -5), 0, 10.327023900277622)
((-2, -1, -3, 1, -1, -6, -4, -3), 0, 10.346362159594806)
((1, 3, 4, 8, 69, 13, 12, -1), 0, 10.366392618664648)
((-1, -2, -3, 0, -16, 1, 0, 0), 0, 10.38303620250321)
((0, 3, 6, 28, -43, 13, 5, -3), 0, 10.40513641865883)
((-3, -1, 0, 1, 78, 15, -1, 1), 0, 10.429722624041455)
((0, -1, 0, -5, -4, -6, -1, -9), 0, 10.449467422422597)
((-3, -3, -3, -13, -26, -8, -1, 2), 0, 10.471815667319904)
((-4, -3, -6, -16, -48, -17, -15, -12), 1, 10.491282787546563)
((-3, -3, -4, -7, -65, -9, -22, -9), 1, 10.507483910917198)
((0, 2, 3, 1, 36, 2, 7, 5), 0, 10.5315387075935)
((-3, -2, -2, 2, 21, 5, -12, -4), 1, 10.55188903821296)
((-3, -2, -2, 2, 21, 5, -12, -4), 1, 10.568144898961073)
((1, 3, 4, 9, 19, 3, -6, 5), 0, 10.588381193377462)
((1, 2, 3, 8, 4, 34, -12, 3), 0, 10.60692405017821)
((0, -4, -3, -4, -19, -2, 1, 1), 0, 10.629374927658283)
((-2, 2, 2, -7, 2, 0, -24, -3), 1, 10.649855259549248)
((-1, -3, -3, -2, 34, -27, -75, -14), 1, 10.668256711458186)
((-6, -3, 1, 3, -9, -31, -41, -13), 1, 10.687089220214741)
((7, 1, 1, 8, -34, -13, 21, -3), 1, 10.706913843938034)
((2, 0, -2, 3, 10, 24, 54, 14), 0, 10.729026604075996)
((-19, -14, -14, -29, 3, 49, -10, -10), 0, 10.750787562527476)
((0, -5, -8, 1, -21, -12, -115, -18), 0, 10.76947125403902)
((-9, -19, -11, -26, -2, -9, -7, -22), 0, 10.788277534468868)
((5, 5, 5, 10, 4, -26, -32, 10), 0, 10.811153766986406)
((-7, 3, -1, -1, -3, 3, -25, 18), 0, 10.833828155424502)
((-8, 5, 1, -7, -4, -62, -17, -9), 1, 10.853391066061743)
((0, 3, -1, -9, 3, 46, 1, 7), 1, 10.87098400129089)
((4, 0, 3, 17, 8, -2, 4, 2), 1, 10.891868021340734)
((-5, -3, -2, 4, -4, -25, 9, 5), 1, 10.912815331483285)
((3, -5, -2, 0, -3, 11, 5, -1), 1, 10.933531718314613)
((-5, -3, -1, 2, -2, -17, 10, 4), 1, 10.953397965252028)
((0, 3, 2, -3, 0, 6, -16, 6), 1, 10.973028727430098)
((-2, 2, 3, -11, 3, 1, -5, -1), 1, 10.993669850367397)
((-2, 0, -1, 16, 7, 4, -4, -18), 1, 11.012906047282831)
((-4, -5, -3, -5, -6, -10, -8, -5), 1, 11.035415083226471)
((-1, -4, -2, -5, -1, -5, 3, 3), 1, 11.053968203285496)
((-1, -4, -2, -9, -3, 0, -11, 6), 1, 11.072524744430615)
((0, 2, 1, -7, -1, 0, 17, 22), 1, 11.092748494864665)
((-1, -1, -2, -5, -4, -1, 22, 11), 1, 11.111064419621297)
((1, 2, 2, -1, -3, 2, -1, -1), 1, 11.132290548280363)
((6, 1, 2, 5, 3, 2, 2, 6), 1, 11.152138549425286)
((-4, -1, -2, 3, -1, -1, 5, -9), 1, 11.172137648539282)
((-3, 1, 5, -1, 0, 3, -3, -6), 1, 11.192595173189632)
((-3, 1, -3, 10, 1, -9, -1, 0), 1, 11.213052697839982)
((-2, -4, -3, -8, -3, 2, 1, -1), 1, 11.236773368441279)
((-3, -2, 1, 10, 3, -8, -14, -3), 1, 11.25876068875586)
((1, -3, -4, -3, -2, 1, -10, -4), 1, 11.279670937132412)
((-1, 0, -3, -10, -2, -6, -10, -15), 1, 11.29860151702361)
((-1, 1, -2, 0, -2, -1, -3, -9), 1, 11.319265447201524)
((-2, -2, -3, -4, -2, -1, 10, 7), 1, 11.341018423118788)
((-3, 0, -2, -1, -1, 1, -4, 1), 1, 11.360447911398431)
((0, -1, 0, -9, 3, -2, -1, -2), 1, 11.380602099748607)
((-1, -1, 1, 9, 2, 2, -1, -5), 1, 11.400737472125275)
((-2, -1, -2, -1, -4, -6, 2, -2), 1, 11.420791308616746)
((-2, -1, -2, -4, -4, 0, 16, -4), 1, 11.44731955053771)
((0, -1, 2, 8, -2, -3, 0, -1), 1, 11.471402286083762)
((0, -2, 1, 3, 3, 1, -1, 3), 1, 11.49160551000126)
((0, -2, 1, 3, 3, 1, -1, 3), 1, 11.510034900779951)
((-1, 0, -3, -4, -1, -3, -2, 2), 1, 11.530481591991009)
((0, -3, 0, -4, 0, 2, -5, 1), 1, 11.552691853082598)
((-1, -4, -2, 6, -1, -3, -3, -3), 1, 11.571835680673544)
((0, 2, 0, 5, -2, -2, 3, 1), 1, 11.592977422542335)
((-3, -4, -4, -11, 0, -2, -5, 1), 1, 11.61231568185952)
((-1, -1, -1, 0, 0, 2, -2, -12), 1, 11.631764556293687)
((-1, 1, 0, 0, 0, -2, 5, 0), 1, 11.655492069067167)
((0, 0, -1, -2, 1, 0, 7, 5), 1, 11.677574039430297)
((0, -1, 0, 1, 0, 0, -7, 5), 1, 11.697010369882127)
((-1, -1, -1, -1, -1, -1, -1, -2), 1, 11.716498586806354)
((0, -2, -3, -3, -3, -3, -7, 10), 1, 11.735495307695334)
((-1, -2, 0, 1, -2, -4, -3, -6), 1, 11.759850589766733)
((-3, 0, -2, 0, -1, -2, -3, -2), 1, 11.780612020898275)
((-1, -5, -3, -15, 0, 2, 10, 5), 1, 11.800448048241876)
((-2, 2, 1, 8, -1, 0, -7, -8), 1, 11.819406567002826)
((1, -1, 1, 7, -1, -1, 2, -1), 1, 11.839491193269128)
((-2, -2, 0, -7, -4, -2, 2, 2), 1, 11.863585332435488)
((0, -2, -3, -9, -3, -1, -6, -2), 1, 11.884658652582436)
((-5, 4, 0, 3, -2, -3, -11, -11), 1, 11.903434713418468)
((-1, -3, -6, -7, -3, -1, -5, -9), 1, 11.924621499587474)
((0, 0, 0, -4, 0, -2, -2, 1), 1, 11.944609765262177)
((-3, -5, 3, 5, -2, 1, -1, 0), 1, 11.965919710530502)
((-1, -8, -13, -6, -2, 1, 4, 0), 1, 11.986174250739381)
((0, 0, 3, -5, 0, 2, 1, 2), 1, 12.005336894303834)
((-2, -6, -6, 1, 0, -3, 0, 2), 1, 12.025722576146249)
((-2, -5, 2, -3, -5, -5, -4, -1), 1, 12.045663516796678)
((-1, 2, 3, -2, 0, -6, -1, -1), 1, 12.069056903495152)
((0, 0, 0, 3, 1, -3, 1, -2), 1, 12.09093018760666)
((3, 4, 7, 2, 3, 4, 5, 0), 1, 12.111058147630128)
((-1, -3, -9, -12, -26, -7, -2, -2), 1, 12.130964307238619)
((-1, 0, 2, 7, 12, 21, 0, -1), 1, 12.150553446202565)
((0, -3, -3, -3, 4, 0, -1, -2), 1, 12.171160928459958)
((0, 1, -1, 4, 7, -4, -1, -1), 1, 12.192329468836471)
((-2, -1, 2, 1, 110, 11, 1, 0), 1, 12.211886677663557)
((-1, -1, -7, -24, -47, -2, -5, -1), 1, 12.232057971444194)
((-1, -2, -2, 9, -20, -4, 2, -2), 1, 12.249192481136987)
((0, 0, 0, 0, -55, -13, 1, -2), 1, 12.27102300167234)
((0, 1, 4, -2, 12, -4, -4, -2), 1, 12.288157511365133)
((1, -2, 1, -6, -1, -9, -2, -1), 1, 12.307161644607314)
((-3, -2, 1, 1, -12, -14, -7, -4), 1, 12.326235910114384)
((0, 0, -3, -1, 8, 12, -7, 1), 1, 12.34719861514435)
((-1, -1, -1, 4, 18, 43, -73, -8), 1, 12.366182221869977)
((-2, 0, 1, -2, 23, 15, 4, 2), 1, 12.384561436719315)
((1, -2, -1, 4, -36, 7, 4, 2), 1, 12.404851328151148)
((0, -2, -5, -1, -23, 5, -23, 2), 0, 12.426525619088292)
((-11, -9, -4, -7, -90, -104, 30, -15), 0, 12.452355959446445)
((-12, -8, -8, -15, -4, 1, -41, -36), 0, 12.48117917995426)
((1, 2, 2, 8, -44, -43, -30, -15), 0, 12.501434290344156)
((-17, 3, -8, -14, -5, -50, -13, -81), 0, 12.524762676406878)
((-15, 76, 14, 10, -47, -35, -1, -19), 0, 12.545485905410391)
((4, -27, -6, -24, 0, -8, 8, 27), 0, 12.566194309707504)
((2, 18, 5, 4, 85, 10, 1, 12), 2, 12.585461296397767)
((2, 41, 6, 29, 42, 65, -3, 26), 2, 12.607069446337128)
((2, 10, 13, 23, 112, 52, 29, 27), 2, 12.628472331110958)
((0, 3, -4, -16, -4, -40, -48, 8), 2, 12.648670993580332)
((0, 3, -4, -16, -4, -40, -48, 8), 2, 12.670357828499814)
((-6, -2, -6, -10, -54, -42, -65, -12), 2, 12.691241848549659)
((-6, -2, -6, -10, -54, -42, -65, -12), 2, 12.710077778392305)
((2, 3, -2, 0, -21, -17, -8, -17), 2, 12.72938182684857)
((4, -3, -3, -5, -9, 28, 29, 13), 2, 12.748567277653637)
((4, -3, -3, -5, -9, 28, 29, 13), 2, 12.767920361677222)
((2, 5, 1, 5, 50, 12, -8, -2), 2, 12.786855503016543)
((-2, -6, -6, -4, -1, -4, 7, 5), 2, 12.806351132293969)
((0, -1, 0, 1, 27, 3, 3, 3), 2, 12.82608623759785)
((-3, 1, -3, -2, -9, -9, -1, -3), 2, 12.845706736517641)
((-1, -2, 0, 2, -9, -3, 1, 0), 2, 12.864802668903296)
((-2, 1, 1, 1, -13, 3, -5, -5), 2, 12.888727464308094)
((-3, -3, -3, -9, 1, -4, -6, -5), 2, 12.909841267307131)
((-2, -1, -1, -3, -18, -9, -3, -2), 2, 12.929757119992884)
((-2, -1, -3, -1, -9, 1, 1, 1), 2, 12.949800693226079)
((-2, -3, -4, -5, -3, -15, -8, -3), 2, 12.975450856383375)
((-2, -3, -3, -4, -12, -6, -4, -1), 2, 12.995533772106631)
((0, -1, -4, -4, 8, -5, -7, 0), 2, 13.015033392651166)
((-3, -5, -5, -13, -6, -4, -5, -4), 2, 13.033822567650551)
((8, 2, -1, -2, -17, -7, -3, 4), 2, 13.053129467011892)
((-2, -1, -2, -2, 7, 2, -1, 2), 2, 13.081263338672128)
((0, -2, -1, 0, 54, 2, 0, -2), 2, 13.10026234028517)
((-3, -4, 0, 2, -27, -4, -3, -3), 2, 13.118989365553883)
((-1, 3, 0, -2, 8, -2, 2, -1), 2, 13.139423512782603)
((-5, -3, -3, -2, -12, 13, 2, -2), 2, 13.159843975666956)
((0, -1, -3, -5, 2, 0, -3, -1), 2, 13.186047784590174)
((0, -1, -3, -5, 2, 0, -3, -1), 2, 13.203231329850288)
((0, -1, -2, -1, -9, -3, -1, -1), 2, 13.22410451646084)
((-1, -1, -3, -6, -38, -9, -1, -2), 2, 13.244191993632219)
((-2, -3, -3, -7, -9, -11, -4, -4), 2, 13.264623860136878)
((0, -1, -2, -2, -2, -3, 0, -1), 2, 13.288031501360736)
((0, -2, 0, -1, -16, -2, 0, 2), 2, 13.308971399150089)
((-3, -4, -3, -4, -7, -4, -2, -2), 2, 13.329380458414132)
((-1, -2, -1, -2, 5, -1, 0, -2), 2, 13.348801393978546)
((-1, -2, -3, -5, -35, -4, -5, -1), 2, 13.368067810487796)
((-1, -3, -2, 0, 5, 0, -2, -1), 2, 13.388749986458201)
((0, 0, -2, 1, -10, -4, -1, -1), 2, 13.409502294693496)
((0, -3, -1, 0, 7, 2, 1, -2), 2, 13.428991081798738)
((0, -3, -1, 0, 7, 2, 1, -2), 2, 13.451361563755645)
((-1, -1, -2, -4, 14, -4, -3, 0), 2, 13.473336340087888)
((0, -1, 0, -1, -10, -4, -2, -1), 2, 13.497095212817213)
((1, 2, 1, 2, -1, -2, -1, 1), 2, 13.51598530985632)
((-2, -3, -2, 2, 4, -2, -1, -1), 2, 13.535248875460493)
((-1, -2, 0, 1, -12, -1, -1, 0), 2, 13.554522704322942)
((-3, -2, -3, -2, 5, 0, -3, -3), 2, 13.574410047957926)
((-3, -3, -2, 0, -1, -3, -4, -1), 2, 13.595515298241732)
((-3, -3, -5, 1, 39, 3, 1, 0), 2, 13.61605321841525)
((-1, -2, -1, -6, 0, -4, -3, 0), 2, 13.635783762271009)
((-3, 0, -1, -8, -14, -1, 1, 0), 2, 13.656344489685141)
((1, -2, -1, 2, -3, -4, -1, -1), 2, 13.674931820605087)
((-4, 0, 0, -3, 12, 3, -1, -3), 2, 13.696705323038906)
((-2, -2, -3, -7, -5, -2, -3, -1), 2, 13.716097749552551)
((-2, -2, -1, 7, 2, 0, -3, -3), 2, 13.741692605151357)
((0, 6, 5, 1, -5, -5, -3, -2), 2, 13.761902671241039)
((0, -1, -5, -6, -3, -1, 0, -1), 2, 13.780620003432489)
((-1, 0, 4, 11, -11, -2, -3, -2), 2, 13.804540237389164)
((5, 5, 2, 9, -4, -1, -12, 0), 2, 13.82445437953187)
((-7, -5, -5, 0, 0, -1, 13, -9), 2, 13.84598156376705)
((1, -1, -9, -16, -4, 1, 15, 29), 2, 13.865516535534535)
((-11, -5, 0, -4, -2, 0, 13, -3), 0, 13.88462843298862)
((-28, -3, -1, -5, 2, -2, -53, -8), 3, 13.909543062636095)
((12, -3, -5, 1, -1, 7, 73, 91), 3, 13.930199580460808)
((38, 3, 6, 29, -5, -7, -67, -32), 3, 13.949090247680932)
((-9, 1, -1, 22, 2, -5, -15, -11), 0, 13.967825825664875)
((2, -4, -3, -19, 5, 5, 25, -11), 0, 13.987860846182837)
((9, 1, 4, 4, 7, 5, 11, -13), 0, 14.009560225084657)
((-8, -1, -4, -15, -7, -8, -11, -17), 0, 14.028341417549829)
((-19, -1, 7, 48, 12, 12, 0, -8), 0, 14.046332339127703)
((6, 0, -1, 6, 2, 7, 9, 4), 0, 14.064295892016839)
((5, -3, -7, -44, -9, 3, 16, -2), 0, 14.085039077355889)
((13, 4, 7, 17, -18, -14, -20, -7), 0, 14.110027260354345)
((8, 2, 8, 2, -63, -31, -11, 4), 0, 14.126376060607962)
((3, 9, 16, 6, 37, 80, -48, -4), 0, 14.146891173540864)
((-8, 0, -1, -10, 14, -23, -5, -70), 0, 14.167089836010238)
((20, 20, -7, -11, 15, 32, 48, 102), 0, 14.186835204572395)
((-19, -56, -15, 7, -12, -12, 4, -108), 0, 14.207604048057137)
((5, -9, -21, -30, 87, 24, -16, 67), 0, 14.227889378040846)
((-5, -26, -16, -19, -5, -59, -13, 40), 0, 14.246834782638444)
((19, 14, 9, 22, -32, -18, 9, -1), 0, 14.266920549266775)
((-38, -1, 5, -13, -36, -14, -5, -46), 0, 14.287597593608043)
((6, 14, 5, 1, -16, 26, 27, 8), 0, 14.317251567855248)
((-14, -12, -4, -3, -22, -36, -27, -12), 0, 14.33745023032462)
((-18, -4, -1, 0, -28, 15, 21, 7), 0, 14.357201870877947)
((-9, -6, 0, -2, -11, -12, -24, 7), 0, 14.377090354874962)
((0, -5, -4, -11, 13, -4, -21, 6), 3, 14.396455982880886)
((12, 2, 0, 0, -16, 5, 19, 3), 3, 14.422938040139604)
((0, 0, 2, 2, 30, 9, -5, 31), 3, 14.447284769495772)
((3, -1, -4, 0, -12, -15, -11, 4), 3, 14.47064451551434)
((10, -1, -6, -10, -1, 7, 30, 19), 3, 14.489985055555588)
((1, 2, 2, -6, -4, -4, -4, -26), 3, 14.515453330968983)
((12, -3, -4, -2, -9, -10, -7, 3), 3, 14.53682941723509)
((-7, 0, 1, 7, 0, -8, 34, 3), 3, 14.557810368057547)
((1, 0, -4, -16, -10, -2, -13, 16), 3, 14.577071082756643)
((-3, 0, 0, 2, -12, 47, 20, 7), 3, 14.596611756334283)
((-6, -2, -3, -3, -1, 0, 18, -10), 3, 14.61798670223836)
((-6, 0, -4, -7, 38, -7, -32, 13), 3, 14.64037885107385)
((3, 1, 2, 3, 1, -5, 17, 6), 3, 14.660895104368784)
((-4, -1, 1, 1, -32, -11, -19, -4), 3, 14.679749280003923)
((-4, -1, 1, 1, -32, -11, -19, -4), 3, 14.698337181104886)
((2, 0, -3, -8, 1, 2, -10, 1), 3, 14.719875768960371)
((5, -6, -6, 0, 46, 3, -1, -10), 3, 14.741247863959371)
((-8, 1, -2, -7, 22, 0, -6, -7), 3, 14.76580499011021)
((7, -2, -4, -4, -6, -10, -5, 16), 3, 14.78487811525525)
((-1, -2, -1, -2, -11, -4, 0, -1), 3, 14.804785985406786)
((-1, -2, -1, -2, -11, -4, 0, -1), 3, 14.82402617358933)
((-14, -2, -6, -11, 5, -2, -3, -11), 3, 14.844309222848977)
((3, -2, 0, 4, 7, -1, -3, -8), 3, 14.864384726219033)
((0, 2, -2, -5, 1, 1, 0, 0), 3, 14.882843196229507)
((4, 0, 1, 1, 6, -6, -7, -8), 3, 14.90455568929468)
((-2, -1, 2, 4, 9, 4, 2, 1), 3, 14.927773460240422)
((-3, -3, -1, -5, 4, -3, -3, -6), 3, 14.946890489323646)
((-5, -5, -2, -6, 1, -3, -2, -1), 3, 14.970091154838927)
((6, -1, 2, 13, 6, 8, 3, -1), 3, 14.990807541670254)
((-3, -2, -1, 2, 15, 3, 0, 6), 3, 15.011006774320643)
((-6, -5, 1, 2, -5, 2, 1, 3), 3, 15.031540703227053)
((-2, -3, -2, -5, 3, -4, -2, 1), 3, 15.053245213758013)
((-1, -2, -2, 0, 1, 3, -1, 4), 3, 15.074161163944718)
((0, -1, -1, -2, 15, -2, -3, 2), 3, 15.094003463279487)
((-2, -1, -4, -3, 2, 1, -1, 3), 3, 15.113561812468605)
((1, -1, -1, -1, -3, -2, -2, 1), 0, 15.135162550054766)
((2, 0, -2, 1, -1, -2, -3, -1), 0, 15.154285280948143)
((0, 2, 1, 2, -7, 0, 0, 1), 0, 15.173877270817167)
((5, 2, 1, 11, 66, 3, 0, 2), 0, 15.194225320712567)
((2, -1, 0, -2, -5, -3, 0, -2), 0, 15.212925547473557)
((-4, -1, -3, -1, 11, 0, -3, -8), 0, 15.234627777280453)
((2, -1, -1, 1, 18, -1, 0, -3), 0, 15.254263100906645)
((2, -1, -1, 1, 18, -1, 0, -3), 0, 15.273105872921477)
((-8, -2, 1, 1, -5, -3, 0, -1), 0, 15.291093943594273)
((-2, -2, -3, 9, 1, 0, -5, -3), 0, 15.310392290240383)
((2, -2, 2, 1, -21, -2, -3, 0), 0, 15.337198780496845)
((-4, -2, -5, -8, -23, -7, -3, -1), 0, 15.357160817844841)
((0, 2, 2, 1, -5, 2, 1, 0), 0, 15.376266443307756)
((2, -1, -2, -3, -4, -5, -1, 2), 0, 15.395978741371023)
((5, 0, 1, -2, -13, 1, -1, -3), 0, 15.41580906690447)
((5, 0, 1, -2, -13, 1, -1, -3), 0, 15.442132613840917)
((5, -1, -2, 2, -9, 9, 0, 0), 0, 15.468831339885474)
((-1, -1, -3, -2, 18, -7, -7, -2), 0, 15.487676962805383)
((-2, -3, 0, -1, 0, 0, 0, -1), 0, 15.508591202449042)
((-1, -3, -2, -3, -11, 1, 0, -2), 0, 15.531920728873796)
((-1, -3, -3, -3, 5, -1, -1, -1), 0, 15.551266970725196)
((2, -3, 0, -1, 7, 0, 0, -1), 0, 15.5702608407091)
((1, -2, -2, -6, -2, -2, -1, -1), 0, 15.590927051611075)
((2, 0, 0, 2, 13, 5, 0, 0), 0, 15.610987160093716)
((5, 0, -2, -1, -6, -8, -4, -1), 0, 15.633562907216154)
((-1, -1, -1, -5, -5, -3, -3, -1), 0, 15.653123537129332)
((0, 0, 0, 2, -21, 4, 2, -1), 0, 15.672935046689272)
((2, -1, -1, -3, -7, -1, 0, -1), 0, 15.692736292990936)
((2, -3, -1, -4, 14, -5, -1, -1), 0, 15.713295880043038)
((2, -1, -3, -10, -6, -7, -5, -2), 0, 15.738675207218035)
((-2, -3, -1, -1, 31, 5, 3, 0), 0, 15.758715929546153)
((3, 0, -1, -2, -8, -7, -4, -1), 0, 15.779658108059566)
((-8, -3, -3, 4, -27, -3, -1, 0), 0, 15.802686578908206)
((-1, -3, 0, 8, -33, 1, 1, -1), 0, 15.82230194619886)
((-2, -2, -3, -1, -10, -4, -4, -1), 0, 15.843257809056642)
((-8, -3, -1, 0, -2, -2, -4, -1), 0, 15.862436417689525)
((-5, -2, -2, -7, -3, -4, -1, -2), 0, 15.88186191470206)
((1, -3, -3, -2, 2, -3, -2, -3), 0, 15.90169680168363)
((-11, -5, -3, -8, -9, -7, -3, -2), 0, 15.922446829194865)
((-1, 0, -2, -1, -9, -2, -1, -1), 0, 15.94608995517807)
((-14, 4, 3, 12, 57, 8, 4, 3), 0, 15.96526400236283)
((-3, -3, -3, -1, 20, -6, -5, -1), 0, 15.98395795713265)
((-1, -1, 1, -4, 2, -1, -2, -2), 0, 16.002421558772262)
((-3, -1, -1, -1, -2, 3, -2, -1), 0, 16.019976862054396)
((-3, -1, -1, 0, -2, 0, 0, -2), 0, 16.038711299676308)
((-4, -3, -5, -5, 4, 1, -2, -1), 0, 16.061212923266748)
((0, -3, 0, -3, 9, -5, -2, -1), 0, 16.08173316782879)
((-1, -2, -3, -4, -4, -3, -2, -1), 0, 16.101913584505674)
((-3, 1, 1, 5, 0, 2, 2, 1), 0, 16.120770040864873)
((0, -1, -2, -3, 5, -1, 0, -2), 0, 16.1414938400494)
((-5, -2, -3, -11, 0, -2, -3, 0), 0, 16.157834657768802)
((-20, 1, 1, -3, -27, -3, 1, 1), 0, 16.17799112684304)
((-1, -2, 1, 5, -16, 0, 0, -2), 0, 16.19816641189078)
((-4, 2, -2, 0, -4, -3, -2, -2), 0, 16.22160883415658)
((-6, -4, -4, -12, -5, -9, -4, -2), 0, 16.24096134799915)
((0, 0, 2, 8, 41, -2, -1, -1), 0, 16.262764499845765)
((-1, -1, -1, -2, 1, -1, 0, 0), 0, 16.284223832540118)
((1, -1, -4, -3, -9, -2, -1, -1), 0, 16.303704066930127)
((3, 0, -1, 1, -21, 9, 3, 1), 0, 16.32358912984105)
((2, -3, -5, -2, 6, -5, -2, -2), 0, 16.344343718800406)
((0, -1, -2, -1, 5, 1, -3, 0), 0, 16.365053833640566)
((-2, -1, -4, -9, -11, -7, -3, -2), 0, 16.38494345799961)
((7, -1, -3, -3, -34, -3, -2, -2), 0, 16.404588474703065)
((0, 0, 1, 0, -5, 2, 0, 1), 0, 16.425287185922915)
((0, -2, 0, -2, -4, -3, -2, -5), 0, 16.441947875191936)
((-8, -1, -1, -3, 2, -2, -2, -4), 0, 16.470631401350985)
((3, -1, 1, 6, -31, 3, 5, 0), 0, 16.48866280578095)
((-1, -4, -3, -5, -16, -7, 0, 0), 0, 16.508631685301133)
((1, 1, 1, 1, 19, 2, -1, -1), 0, 16.52696072422112)
((-1, -2, -2, -7, 1, -5, -1, -2), 0, 16.547292809048088)
((-3, -5, -3, 0, 2, 0, -1, -2), 0, 16.571091024267474)
((0, -2, -1, 2, -8, -2, -2, -2), 0, 16.590728058436714)
((-6, -1, -2, -1, -4, 4, 0, 4), 0, 16.6092686345134)
((-7, -2, -1, -3, 15, -6, -6, -4), 0, 16.628695842068982)
((1, -2, 0, 1, 39, 5, 0, -1), 0, 16.647811730790174)
((1, -2, 0, 1, 39, 5, 0, -1), 0, 16.670976474901487)
((-3, -2, -3, -4, 0, -1, -1, -7), 0, 16.690287935710952)
((7, 1, 1, -2, 5, 4, 3, 11), 0, 16.709926680423234)
((4, 2, 3, 1, -43, -5, -1, -4), 0, 16.728510020076072)
((4, 2, 3, 1, -43, -5, -1, -4), 0, 16.74895329020104)
((-13, -3, -5, -9, -15, -11, -8, -5), 0, 16.768038389147403)
((0, -4, -3, -3, -3, -3, 0, 1), 0, 16.7862454093301)
((0, 0, 0, 1, 6, -1, -1, -1), 0, 16.80560020389673)
((2, -3, -2, -2, -8, -1, 0, 2), 0, 16.825221843178554)
((-21, 2, 0, 0, 7, 4, 1, -1), 0, 16.84536462790842)
((-6, -3, -1, 2, 50, 2, 0, -1), 0, 16.86611693614372)
((5, 0, 2, 6, -7, -3, -1, -3), 0, 16.88593927914295)
((3, 0, -1, -2, -44, -6, -4, 1), 0, 16.905434908420375)
((1, -2, -1, 3, -1, -8, -2, -3), 0, 16.924705886377748)
((0, 0, -2, -10, -2, -2, -5, -1), 0, 16.944058970401333)
((6, -2, -2, 0, -8, -1, -2, -7), 0, 16.967707228013676)
((-4, -1, -2, -7, 0, -8, -4, -8), 0, 16.98803418121151)
((1, -2, -1, -4, -5, -2, -4, -6), 0, 17.00923237100082)
((-3, -3, -4, -5, -1, -5, -5, -3), 0, 17.02853984054318)
((-6, 0, 2, 7, -23, -2, 1, -11), 0, 17.047351822783178)
((-7, -3, -4, -8, -11, -6, -2, 6), 0, 17.071102712978288)
((-2, -1, 0, 4, -25, 2, 1, 1), 0, 17.091645764780946)
((8, 0, 3, 4, -30, -1, 1, 8), 0, 17.109601335135867)
((-2, -3, -2, -4, 8, -2, -2, -3), 0, 17.12930279975984)
((1, -2, -2, 5, -1, 0, 0, 5), 0, 17.14948321643672)
((-1, -2, -1, -6, -27, 0, 2, -1), 0, 17.172809321775382)
((0, -1, 0, 3, 8, 1, 0, 1), 0, 17.19271719192692)
((-2, -3, -6, -14, -4, -2, -3, -2), 0, 17.212283523650253)
((-1, -1, 1, 15, 8, 2, -1, -1), 0, 17.23173125772239)
((-1, -3, -5, 8, -1, -3, -2, -1), 0, 17.251469784112363)
((-1, -3, -5, 8, -1, -3, -2, -1), 0, 17.2715817790674)
((0, -2, -2, -31, 1, 0, 1, -2), 0, 17.29460910955401)
((2, 2, 5, 13, 5, 1, -1, 3), 0, 17.312813849012645)
((-4, -2, -3, 10, -2, -5, -4, -3), 0, 17.332347680418103)
((-4, -2, -3, 10, -2, -5, -4, -3), 0, 17.351092951479306)
((-1, -1, 1, 8, -2, -2, -2, -3), 0, 17.3699083548054)
((-1, 0, 1, 1, 2, -2, -2, -2), 0, 17.393823457132935)
((0, -3, -4, -3, 3, 0, -2, -1), 0, 17.41256587728906)
((-2, -2, -4, -5, -3, -1, -2, -6), 0, 17.436593875457643)
((-3, 0, -1, -23, -3, 0, -1, -3), 0, 17.46144179392632)
((0, -1, -1, 7, 3, 4, 2, 1), 0, 17.482390814611914)
((-1, -1, 2, -3, -2, -3, -1, 0), 0, 17.5031984304057)
((-1, 2, 3, 4, 3, 2, -2, -2), 0, 17.52350257636292)
((-3, -2, 2, -6, 0, 0, -2, -3), 0, 17.54278096667349)
((1, 2, 3, -37, 0, 4, 4, 1), 0, 17.56242142192882)
((1, 1, 4, 19, 3, 0, 0, 2), 0, 17.584633393563454)
((-2, 0, 2, 12, 1, -3, 0, -1), 0, 17.60475223069068)
((-2, -1, -1, -2, -4, -5, -3, 2), 0, 17.624819751526516)
((-3, -3, -2, -10, -4, -4, -3, -1), 0, 17.643724103091007)
((-1, -3, -6, -1, 2, -1, -4, -3), 0, 17.661778884942603)
((-1, -2, -4, -17, -2, 2, 1, -2), 0, 17.68486665461684)
((0, 1, -1, 1, -8, 1, -3, 1), 0, 17.70614295920526)
((-5, -2, 0, -5, -10, 6, 1, -3), 0, 17.723620147688287)
((1, 0, -4, 7, 28, 11, 2, 4), 0, 17.74443916710238)
((-10, -6, -11, -37, -62, -22, -14, -5), 0, 17.766772017112274)
((9, 5, 16, 39, 22, 14, 19, 5), 0, 17.784936273718817)
((-8, -3, -10, -33, -15, -14, -12, -2), 0, 17.805276341080003)
((-2, 0, 1, 9, 12, 44, 12, 8), 0, 17.824109420017574)
((-13, -8, -10, -21, 33, -38, -16, -50), 0, 17.844230537868857)
((2, -8, -7, 16, -34, 52, -45, 8), 0, 17.866512071587366)
((2, 12, -4, -7, -24, 1, -7, 3), 0, 17.887405784714474)
((-7, -11, -8, -25, -44, -18, 11, 9), 0, 17.909028189179217)
((7, 9, 9, 12, 28, -11, 37, 10), 0, 17.926861170615837)
((2, -1, 0, -6, -72, 10, 0, -7), 0, 17.946994262268444)
((-2, -3, -4, -4, 0, -7, -14, -12), 0, 17.965960193382593)
((-1, 0, -7, -16, 10, -19, 1, 3), 0, 17.986257497167625)
((-1, 0, -7, -16, 10, -19, 1, 3), 0, 18.005017022754213)
((32, 18, 16, 18, 39, 37, 51, 89), 0, 18.024353001347336)
((10, -6, -9, -21, 9, -13, 57, 45), 0, 18.043965517732914)
((-47, -5, 0, 4, -11, -31, 26, -21), 0, 18.0635672006792)
((21, 6, 5, -4, 5, 20, -49, -1), 0, 18.085194166592068)
((1, -3, 1, -14, 1, 30, 29, 8), 0, 18.11090990056613)
((-36, -7, -1, 14, 17, 7, -6, -30), 1, 18.130832025243055)
((-17, -7, -3, -22, 0, 27, -1, -5), 1, 18.149895457310834)
((-3, -3, -8, -7, -7, -22, -14, 3), 1, 18.17286519951489)
((1, -3, -6, -8, -9, -33, -57, -10), 1, 18.194488744341665)
((2, 0, 0, -1, -1, -8, 13, -4), 1, 18.217705945106392)
((7, -1, -3, -2, -4, 11, 20, 15), 1, 18.236639946083685)
((-5, -7, -12, -75, -11, 8, 20, -6), 1, 18.25634369143172)
((-6, -2, 2, 11, -3, -11, -2, 5), 1, 18.277884560011266)
((-1, 0, 1, 5, 3, 15, 25, 3), 1, 18.3021890959723)
((-5, -2, -2, -4, -5, 2, 5, 18), 1, 18.323004124119283)
((-3, 1, 8, 46, 17, 13, 10, 2), 1, 18.34114614366623)
((-1, -4, 0, 6, 5, 1, 16, 2), 1, 18.360792300731713)
((0, -6, -3, -16, -5, -5, 17, -2), 1, 18.380990963201086)
((3, 3, 2, 0, 1, 3, -4, 3), 1, 18.405202559656615)
((-5, -2, -3, -1, 0, -12, 13, 4), 1, 18.424360641772942)
((-1, 0, -3, -14, -1, 4, 3, 5), 1, 18.447368586105032)
((-5, -2, -2, 2, -1, -8, -23, -18), 1, 18.468667127753047)
((2, 0, -1, 0, -3, -3, 5, 12), 1, 18.48907390629303)
((-3, -1, 0, 3, -4, -16, -8, 11), 1, 18.51266343526079)
((-8, -1, 3, 8, 1, -3, -8, 6), 1, 18.53217103833954)
((-4, -3, -3, -1, -2, 8, 11, -5), 1, 18.551378156023194)
((6, -1, 3, 11, 6, 1, -4, -8), 1, 18.57003333848397)
((-1, -3, -3, -6, 1, -1, -6, 4), 1, 18.587081180662423)
((-8, -2, -4, 4, 1, -1, 1, -15), 1, 18.610199740111494)
((-1, 0, 1, 3, 0, -2, -7, 4), 1, 18.631454377821328)
((-4, -2, -2, 0, 1, 0, 9, -4), 1, 18.65121400090887)
((-4, -1, -1, 0, -1, -3, -13, -11), 1, 18.670018000614654)
((-2, -7, -4, -1, -3, -5, -3, -2), 1, 18.689776483340165)
((-1, -1, -1, 4, -1, 3, 6, -2), 1, 18.712603110109367)
((2, 1, 0, 5, 2, 2, -6, 16), 1, 18.7346109569405)
((1, -1, -5, -10, -3, -4, -36, -6), 1, 18.75554971436782)
((0, -1, -1, 0, 0, -1, -3, 0), 1, 18.77499060626777)
((-5, -4, -4, -9, -4, -3, -10, -5), 1, 18.796134628860624)
((-4, 1, 0, 18, 0, -5, -6, -7), 1, 18.820964871717823)
((-2, -3, -1, 17, 0, -4, -9, -2), 1, 18.840142339988677)
((-1, -1, -1, 2, -1, -4, 1, 2), 1, 18.85776378426859)
((-3, -4, -4, 4, -2, 3, 15, -5), 1, 18.87754108296761)
((1, 1, 0, -6, 1, 3, 2, 2), 1, 18.89646881195373)
((-2, -3, -1, -14, 2, 2, 5, -5), 1, 18.91999619119082)
((-5, 0, -3, 4, -2, 1, 18, -14), 1, 18.939220984485946)
((-2, 1, 1, 2, 0, 4, -2, 5), 1, 18.959780571538047)
((1, 0, 1, 4, -1, 0, -9, -2), 1, 18.97986234689927)
((0, 0, 0, -5, 0, 7, 0, 5), 1, 18.99948569672414)
((-1, -1, 0, 15, -3, -1, -11, -2), 1, 19.021888678998923)
((-2, -5, -2, -5, 0, -4, -15, -3), 1, 19.042315413874444)
((-2, -4, -2, 5, -3, -3, -7, -6), 1, 19.06494190710725)
((-2, 1, 2, 7, 2, 1, 3, -2), 1, 19.084930742962968)
((-6, -2, 0, -5, -2, -1, -5, -3), 1, 19.103393774421566)
((1, -2, -4, 4, -3, -2, -7, -9), 1, 19.12405029224628)
((-1, 2, -1, -2, -2, 2, 1, -4), 1, 19.14318328639793)
((-2, 2, -2, 5, 2, -1, -5, -2), 1, 19.16472073389139)
((-3, -2, 1, 3, -1, -4, 2, 0), 1, 19.1849245279899)
((-2, 0, 1, 2, 1, 2, 2, -4), 1, 19.204017039289464)
((-1, 2, 11, 4, -1, -2, -2, -2), 1, 19.22622730038105)
((-3, -4, -12, -14, -4, -2, 0, 19), 1, 19.24717004907548)
((1, 3, 6, 8, -2, -1, -5, -11), 1, 19.26781858436598)
((-1, -3, -5, 9, -2, -1, -1, -2), 1, 19.28571827698139)
((0, -3, -5, 5, 1, 1, 1, -1), 1, 19.306053782894455)
((-4, -1, -5, -1, -5, 1, 1, 0), 1, 19.328756110202306)
((3, 5, 7, 11, 45, 12, 2, 0), 1, 19.34769695335178)
((-1, -2, -3, -3, -12, 1, 0, -1), 1, 19.36649810215249)
((-2, -1, 1, -3, 23, 0, -1, -1), 1, 19.3848613519334)
((-2, -1, -1, -4, -9, -3, -2, -2), 1, 19.403718948654628)
((8, 1, -1, 0, 9, 0, 3, 8), 1, 19.424382878832542)
((-3, 0, 1, -1, -1, 13, 13, 70), 1, 19.452236791614233)
((-2, 0, -1, 6, 8, 1, -5, -19), 1, 19.471914878816577)
((-5, -2, -3, -5, 6, 1, -2, -19), 1, 19.49276981963464)
((0, -2, -1, -8, -10, -4, -2, 3), 1, 19.516505314942336)
((0, -1, -1, 1, -19, 6, -1, 3), 1, 19.538945929164132)
((1, 1, 3, 4, -4, 14, 2, -7), 1, 19.556200747051168)
((-4, -4, -6, -5, -38, -9, -4, -5), 1, 19.576525419524938)
((-1, -3, -8, -23, -7, 6, -1, -3), 1, 19.595948065632395)
((-3, -5, -8, -1, -17, -19, -7, -2), 1, 19.615082770327096)
((-4, -5, -5, 1, 2, 3, -18, 2), 0, 19.637164170509212)
((-3, -2, -5, -10, -37, -14, -15, -2), 0, 19.656422604484245)
((4, 2, 4, 8, 82, 17, 13, 2), 0, 19.67480124915257)
((-16, -11, -8, -11, -91, -14, -74, -17), 0, 19.691800055763704)
((23, 4, 2, -5, -6, 13, 6, -33), 0, 19.711500380025647)
((6, 2, 6, 39, 84, 24, 18, 70), 1, 19.73449007856524)
((34, 62, 25, 55, 56, 62, 22, 13), 0, 19.755782918403106)
((0, -16, -13, -40, 15, -21, 3, 91), 0, 19.77390897288162)
((21, 19, 11, 35, -6, 34, 41, -22), 0, 19.793690262847747)
((0, -16, -9, -31, -58, -30, -9, -31), 0, 19.814235025193447)
((-12, -17, -13, -28, -86, -10, -18, -30), 2, 19.83875965102641)
((1, 7, 3, -2, 13, 28, 1, 15), 2, 19.858322561663652)
((-6, -5, -3, -11, -32, -23, -2, 3), 2, 19.882017574119256)
((7, 7, 5, -12, -6, -2, -8, -46), 2, 19.901867285807224)
((-4, 4, 3, 0, 10, 0, 0, -14), 2, 19.92117646589263)
((3, -2, -1, 5, 46, -30, -4, -20), 2, 19.94164824506836)
((-8, -1, 1, -2, 25, -9, 1, -3), 2, 19.96143295612058)
((1, -2, -6, -4, 62, 27, 7, 0), 2, 19.981923551269823)
((0, 0, -5, -10, 5, -3, 1, 6), 2, 20.004351051328264)
((0, -2, 2, 16, -20, 2, 6, 23), 2, 20.02291671536963)
((-3, -1, -1, 0, -14, -2, -2, -14), 2, 20.04177659281492)
((2, 1, 0, 4, 63, -8, -4, 2), 2, 20.062585919151754)
((-1, -1, 0, 3, -3, 0, 5, 16), 2, 20.082517736905935)
((-1, 0, -1, -2, -22, 5, 13, 37), 2, 20.1023634573268)
((2, 1, -2, 4, 15, 1, 0, 1), 2, 20.1245742885994)
((-1, 2, 1, -1, 44, -1, -4, 0), 2, 20.147034859156737)
((-3, -2, -3, 1, -43, -2, -1, -6), 2, 20.16753058593512)
((-2, -4, -4, -13, 18, -9, -6, -2), 2, 20.191852797507625)
((8, 2, 2, 4, 28, 7, 1, -13), 2, 20.21228979564142)
((-3, -1, -2, -2, 3, -5, -2, -4), 2, 20.23180481107337)
((-2, -1, -3, -6, -5, -2, -4, -11), 2, 20.253471689657317)
((0, -2, -1, 3, -2, -1, 3, 1), 2, 20.27811320259843)
((-3, -5, -4, -9, -32, -6, -3, 6), 2, 20.298891168979416)
((-1, 0, 2, 1, 16, -5, -3, 5), 2, 20.318971233797594)
((1, -2, -1, -2, 30, 3, 1, 3), 2, 20.339078097123494)
((-1, -2, -3, -5, -11, 3, 0, 2), 2, 20.36359987205138)
((-2, 2, -2, -2, 12, -6, -2, -3), 2, 20.38403915090924)
((-4, -2, -5, -9, 1, -5, -4, 6), 2, 20.402945213016775)
((-2, 3, 1, -1, 4, -1, 1, -3), 2, 20.42286334642659)
((-2, 3, 1, -1, 4, -1, 1, -3), 2, 20.443800393310866)
((-1, 1, 1, 0, -7, 1, 2, 4), 2, 20.47264699124031)
((-4, -4, -8, -10, -6, -7, -5, -1), 2, 20.49125370831478)
((0, -2, -2, 0, 32, -4, -5, -5), 2, 20.510645564647408)
((0, 1, -2, -2, -23, 4, -1, -1), 2, 20.529987815231703)
((-2, 1, 1, 1, 6, 3, 1, 3), 2, 20.55556271449497)
((-1, -2, -2, -1, 18, -2, -3, 0), 2, 20.574295441573838)
((-2, -3, -2, -4, -28, 6, -3, -1), 2, 20.594919459080675)
((-1, -1, -2, -3, -4, -7, -3, 1), 2, 20.613588896066833)
((-2, -2, 1, 1, 10, -3, -2, -1), 2, 20.63471923431532)
((-3, -3, -4, -4, 3, -2, -3, -3), 2, 20.657599458099963)
((0, -3, -2, -3, -5, -3, -2, -2), 2, 20.679987615668345)
((0, 0, 1, 4, 8, 0, 2, 0), 2, 20.699801405952346)
((0, -1, 0, -1, -14, -6, -3, -1), 2, 20.719597520624873)
((-1, -4, -1, 0, -6, -5, -2, 0), 2, 20.7386552508825)
((-1, 2, 0, -1, -2, -1, 0, -2), 2, 20.768156986798598)
((0, -1, -2, -2, 13, -5, -4, -2), 2, 20.78730537583767)
((-1, -2, 0, 2, 60, 1, -3, 0), 2, 20.80608998938893)
((-1, -1, -2, -5, -14, -5, -3, -2), 2, 20.827418750630763)
((-3, -2, -7, -5, -5, -5, -3, -2), 2, 20.849680328013733)
((0, -2, -3, 0, -10, -2, 0, -1), 2, 20.873814950032187)
((-2, -1, -2, -6, -4, -1, -2, -1), 2, 20.89410256073996)
((-3, -2, -4, -5, -40, -9, -2, -3), 2, 20.9143742063793)
((0, 1, 1, 1, -18, 0, -1, 1), 2, 20.93490585456165)
((-2, -3, 0, -4, 3, -7, -3, 0), 2, 20.958227398452188)
((-1, 0, -2, -9, -16, -5, -3, -2), 2, 20.978098206837725)
((-2, 0, -1, 0, 7, -1, -2, -1), 2, 20.998109849934057)
((0, 1, 0, -3, -15, 3, 1, -2), 2, 21.01608366608147)
((-1, -2, -3, 0, -8, -7, -3, -1), 2, 21.037204311252694)
((-1, -2, -4, -6, 2, -1, -1, 0), 2, 21.060636470260214)
((-3, -3, -2, -11, -22, -4, 0, -1), 2, 21.082205277709516)
((1, 2, 0, 0, 21, 0, -1, 0), 2, 21.101607967481435)
((-3, -2, -7, -14, -10, -7, -3, -3), 2, 21.122136194577692)
((0, 2, -1, 7, 3, -2, -1, -1), 2, 21.145034664154828)
((0, -1, -5, -13, -5, -3, -3, -2), 2, 21.16849989366124)
((-1, -2, -3, -7, -3, -4, -3, -2), 2, 21.188147191088756)
((-2, -2, -3, -11, -20, -3, -2, -2), 2, 21.207999183500785)
((0, -3, -9, -40, -12, -5, -2, 0), 2, 21.228109467912777)
((0, -2, 0, 8, -6, 1, -1, -2), 2, 21.248675897137066)
((0, 0, 3, 3, 3, -1, 0, -1), 2, 21.271150722219783)
((0, 0, 2, -1, -3, 0, 7, -1), 2, 21.29009042500723)
((-3, -4, -4, -5, -9, 0, -4, 0), 2, 21.30982039868197)
((1, 2, 3, -14, -7, 3, -11, -1), 2, 21.328271456339245)
((-3, -1, -4, 3, -2, -3, 0, -3), 0, 21.346864489069343)
((-2, 1, 4, 5, -2, -4, 0, 1), 0, 21.367798114867526)
((-2, -6, 0, 18, 0, -1, -11, -4), 3, 21.38868213491737)
((-2, -4, -1, 1, -2, -1, 2, -1), 3, 21.4084189507643)
((1, 2, -1, -2, -2, 0, -4, -3), 0, 21.428160898240364)
