((-37, 63, -22, 10, 22, 18, 17, 26), 3, 5.701810153669486e-07)
((12, -17, -9, 10, 16, -2, -1, -1), 1, 0.08774629681685045)
((6, -27, -21, 8, 14, 3, 0, -11), 1, 0.11148692375368409)
((1, -2, -3, 5, 0, -3, -6, -8), 1, 0.13482956434179158)
((-7, 6, -1, -3, 0, -2, -2, -4), 1, 0.15724794150398927)
((7, 1, 2, 0, 2, -1, 6, 3), 1, 0.17965719576994107)
((26, 5, 0, 1, 3, 2, 1, 30), 1, 0.19804268261044833)
((-1, 13, 5, 9, 7, 5, 6, 6), 1, 0.2225159921520285)
((-15, -12, 2, -13, -3, 0, 0, -1), 1, 0.24989779505299548)
((23, 3, 6, 5, 3, 1, -2, 2), 1, 0.26927824776531806)
((-11, -22, 0, -1, 0, -3, -1, -1), 1, 0.29138758681718685)
((-3, 2, 6, 1, 6, 1, -1, 1), 1, 0.314532374592962)
((-12, -7, 0, 7, -1, 3, -1, -1), 1, 0.33236991747770167)
((-10, 3, -1, 2, 3, 1, -6, 1), 1, 0.35510189419835114)
((-41, -21, -3, -2, -2, 5, 8, -4), 1, 0.37578121926367963)
((24, 5, -1, -4, 2, -1, -5, 1), 1, 0.3977240654590613)
((-6, -10, -3, -5, -10, -8, -5, -6), 1, 0.4171643871779974)
((6, 2, 0, -4, -6, -2, -3, -1), 1, 0.4383631471483252)
((-12, -4, 2, -1, 1, 2, 5, 4), 1, 0.4583588251762287)
((12, -7, -6, -7, -4, 0, 2, 4), 1, 0.47742339760603797)
((-22, -10, -1, 16, 3, -1, 0, 1), 1, 0.4985748325520903)
((10, 14, 1, -7, 5, -3, -8, -7), 1, 0.5202702201868027)
((5, -8, -1, 7, 1, 0, 0, -4), 1, 0.5414096813315323)
((24, 5, -5, -1, 1, 1, -1, -2), 1, 0.5611373742822133)
((-2, 5, -1, -3, 1, 1, 5, 1), 1, 0.5847901933426805)
((11, -1, 5, 9, 21, 1, -2, 0), 1, 0.6076726978513869)
((12, 13, 16, 5, 5, 2, -1, 2), 1, 0.6284814540072037)
((9, 6, 14, -3, 0, -2, 11, -3), 1, 0.6535825328467029)
((3, 8, 27, 5, 1, 7, 12, 3), 1, 0.6750515586183146)
((46, 0, 18, 18, 7, 11, 5, 32), 1, 0.6960239567255416)
((29, 8, -22, 16, 10, -3, -19, 44), 1, 0.7375838807546232)
((21, -1, 4, 7, -6, 5, 41, 32), 1, 0.7639154102252842)
((48, 8, 28, 35, 8, -4, 17, -9), 1, 0.7834714786903398)
((-36, -16, -8, 4, -16, -13, -38, 7), 1, 0.8037260188992199)
((42, 29, 43, 7, 15, 9, 9, 31), 3, 0.8654144731327854)
((17, 5, -11, 12, -1, 1, 4, -17), 3, 0.886061297880238)
((-12, -12, 9, 14, -7, -3, 6, -19), 3, 0.9071129511486011)
((6, -3, -3, 5, -4, 1, -1, -7), 3, 0.925311418616068)
((-12, -2, -47, -3, 2, 5, 15, 7), 3, 0.953530817428609)
((-4, -6, -54, 0, -1, 0, -4, 7), 3, 0.9761094154561248)
((4, 3, -18, 4, -6, -2, 3, 4), 3, 0.9962316736694399)
((-33, -18, -37, 17, -11, -2, 8, -5), 3, 1.0187150514673893)
((-11, -13, -29, -22, -3, 3, -5, 10), 3, 1.0414538703602232)
((6, 1, 3, 30, 3, 2, -10, 2), 3, 1.0645906756017833)
((-3, -1, 5, 3, -7, 0, -1, 7), 3, 1.090483735871627)
((3, -9, -92, 19, -2, -5, 0, 1), 3, 1.1156851665698309)
((-23, 1, -72, -11, 2, 5, 3, 4), 3, 1.1371131393083362)
((2, 9, 35, 6, 9, 4, -18, 0), 3, 1.1588763784838774)
((5, -7, 16, 13, -14, -7, -11, -2), 3, 1.1807017673900932)
((5, 5, 28, -6, 8, 2, 0, -6), 3, 1.19887685743593)
((8, -2, 2, -23, -6, -2, 2, 1), 3, 1.2253098791273265)
((2, 2, 19, 19, 2, 1, 6, -3), 3, 1.2455427524576228)
((6, 4, 6, 1, 3, 7, -26, -1), 3, 1.2697982528513327)
((-4, -2, -4, -2, -4, 1, -3, 1), 3, 1.2934265541281391)
((-5, -7, -58, -47, -11, -5, 4, 1), 3, 1.3133788983988748)
((0, 0, -16, -8, 19, 8, 14, -2), 3, 1.3351050758084169)
((0, 2, -5, -3, -14, -5, -1, 1), 3, 1.3555033016331695)
((2, 3, -4, 9, 0, 1, 0, 2), 3, 1.3751876608266826)
((-3, -6, -21, -28, -27, -3, -2, -6), 3, 1.3961281287970493)
((-2, -5, -23, -21, -11, -6, -2, -2), 3, 1.4249986743291392)
((-2, 4, -14, 7, 4, 3, 0, 0), 3, 1.4466393245863765)
((4, 6, 13, 33, 17, 7, 5, 1), 3, 1.471292241147797)
((1, 3, 2, -12, -15, -7, -3, -1), 3, 1.4922589374448707)
((-6, -9, -8, -4, -9, -5, -2, -2), 3, 1.5111752628106845)
((-1, -2, -8, 42, 13, 6, 2, -1), 3, 1.535092645862282)
((2, -1, 9, -3, 3, -1, -1, 2), 3, 1.5572390466801496)
((61, 2, -21, 37, 9, 6, 0, -40), 3, 1.5814244148089693)
((-3, 13, 25, 43, 15, 8, 9, 26), 3, 1.6036152897460356)
((-25, 6, 28, 24, 13, 12, 13, 39), 3, 1.6283024171683784)
((2, -3, -2, 8, -6, -3, -1, -8), 3, 1.6482353752845915)
((53, -1, -52, -67, -14, -6, -5, 3), 3, 1.6667366088712183)
((-66, 1, 57, 24, 4, 2, 12, -18), 3, 1.6923405873662711)
((-24, 9, 22, -13, -9, 2, 0, 22), 3, 1.714205888943563)
((27, 27, -6, -5, 3, 4, 3, -8), 3, 1.7362547888078028)
((-15, -11, 17, 25, 5, 2, 0, -2), 2, 1.782673225268826)
((-17, 16, -26, 13, 11, 4, 2, -12), 2, 1.802806316921433)
((-3, 3, 54, 8, 4, 1, -2, -15), 2, 1.8265714616419275)
((3, 12, 1, 20, -1, 4, 2, -6), 2, 1.846924643166466)
((10, -9, -19, 34, -2, -1, -1, -4), 2, 1.8732322250344817)
((4, -22, -14, -12, -2, -1, -3, 0), 2, 1.8945626968193592)
((3, 11, -44, 4, 3, 4, 3, -3), 2, 1.9190052165861096)
((-10, -6, 17, 10, -4, -4, -4, -7), 2, 1.942568517227164)
((7, -5, 40, -27, -12, -3, -3, 3), 2, 1.9603838230523045)
((-1, -15, -9, -12, 11, -1, 0, -2), 2, 1.980844198607732)
((6, -2, -37, 3, 9, 7, 3, 3), 2, 2.0016124719114576)
((27, -8, -14, 22, 21, 2, -1, -1), 2, 2.0239686993429804)
((59, 2, -16, -38, -12, -3, -1, 9), 2, 2.0473027872158576)
((2, 12, 8, -13, 10, 3, 2, 0), 2, 2.0666570116014733)
((-54, -82, -25, -34, -28, -14, -14, -44), 2, 2.088146563889638)
((29, 1, -9, -34, -1, -3, -4, -46), 2, 2.1131096589234186)
((-25, 7, 1, 8, 0, -4, -25, -94), 2, 2.1370966040588906)
((-63, -2, 30, -21, -16, -4, 5, 61), 3, 2.15697710552169)
((-17, 7, -10, -3, -2, 3, -2, -21), 3, 2.179293420282137)
((10, -19, -7, 11, -17, -7, 4, 17), 3, 2.2024809716340648)
((20, -2, 0, 8, 5, 3, 10, 68), 3, 2.2229447682755845)
((5, -5, 12, -21, 3, 2, 10, 44), 3, 2.2442809418706156)
((20, 2, -4, -35, 3, 2, 6, 5), 3, 2.264585087827833)
((5, 6, -6, 33, -4, -2, 3, 1), 3, 2.2906554743934557)
((41, 8, -25, 35, 6, 3, -2, 14), 3, 2.3787592747069413)
((37, 3, 0, 27, -3, -5, 28, 11), 3, 2.399450003392577)
((-22, -18, 36, 94, -11, -6, 7, 16), 3, 2.4203482779678063)
((39, 10, -13, 16, 0, -4, -25, 8), 3, 2.443755919191666)
((-25, -7, 29, -30, -6, 0, 1, -4), 3, 2.4644631831267474)
((-44, -17, -65, 17, -7, -9, -27, -61), 3, 2.4914960352463096)
((-7, 10, -79, -85, 2, 1, 0, -22), 3, 2.5252296546584643)
((-2, 1, 6, -4, -3, 1, -10, -47), 3, 2.5512350405883355)
((18, -3, 7, -2, -5, -2, -6, 17), 3, 2.5703383853271897)
((12, 2, 5, -19, -9, -5, 1, 14), 3, 2.5902987121321406)
((5, 0, 21, 9, 4, 4, 4, 7), 3, 2.614241183148414)
((-33, -2, -3, 17, -2, -3, -1, -7), 3, 2.640539642120184)
((-28, -20, 14, 22, -8, -9, 0, -34), 3, 2.6602422471061886)
((-17, -8, 3, -47, 2, -1, 0, -11), 3, 2.6807334124364464)
((7, 13, 20, 31, 9, 4, 1, 16), 3, 2.7031403859783367)
((-1, 8, -20, -50, 3, 1, 0, -6), 3, 2.7245181827874894)
((11, 5, -20, 21, 3, 4, 1, 4), 3, 2.7461080869343593)
((-14, -2, -21, 8, 6, 1, -3, -5), 3, 2.768775633200272)
((-1, -1, 11, -18, -4, -1, 0, -6), 3, 2.7948311950594955)
((-2, -5, 14, 31, -15, -11, -5, -1), 3, 2.8238722247151804)
((4, 1, -3, 11, 11, 6, 2, -8), 3, 2.8453355486766383)
((1, -7, -11, -9, -12, -6, -1, -1), 3, 2.8650506976449814)
((-4, -4, -59, -13, -8, -3, -3, -1), 3, 2.8868760865511973)
((-2, -2, -34, -4, 2, -4, -4, -1), 3, 2.907630105329539)
((-3, 0, 19, 77, -4, -1, 1, -2), 3, 2.935243401722745)
((-2, -2, 38, -11, 1, 3, 0, -11), 3, 2.95744796100418)
((-2, -2, 10, -14, -3, 0, -1, 1), 3, 2.9814759591727586)
((0, 1, -7, 4, -2, 3, -2, 2), 3, 3.0025259018980757)
((-4, -10, -44, 7, -6, 0, -2, 1), 3, 3.025209983413434)
((2, 5, 24, 26, 10, 2, 0, 1), 3, 3.045086493609126)
((0, 3, 37, 16, 3, -4, -3, 3), 3, 3.070610076581012)
((-11, -5, -33, -24, 0, 1, 3, -5), 3, 3.091577343059101)
((-25, -8, -41, -11, 0, -2, -3, 10), 3, 3.1198685846795784)
((66, 2, 88, -32, -6, -4, -9, -10), 3, 3.1417527022303773)
((-17, 14, 33, 20, 8, 5, 2, -2), 3, 3.161610396452562)
((-10, -25, -118, -59, -11, -8, -3, 43), 3, 3.1853533041134567)
((39, -21, 106, 95, 13, 1, -2, 23), 2, 3.227387618747324)
((-9, 4, 3, -10, 3, 3, 6, 5), 2, 3.248865197234166)
((13, -14, -35, -46, -8, -4, -1, -5), 2, 3.2683670985027615)
((-55, -16, -12, -10, -5, -3, -4, -15), 2, 3.291224515046792)
((16, -12, 0, 25, -1, -4, -3, 6), 2, 3.317517842389423)
((1, 51, 100, 17, 3, 3, 1, 11), 2, 3.341164959639737)
((2, -14, 8, 16, 2, 2, 1, -13), 2, 3.36892992418303)
((-43, 1, -3, -1, -6, -4, -4, -49), 2, 3.389765478846569)
((-3, 5, -6, 56, 6, -1, 1, -2), 2, 3.411655298207522)
((-38, -7, -35, -58, -10, -4, -4, 0), 2, 3.431036891281875)
((10, 13, 9, 25, 1, 1, 1, 2), 2, 3.454962827048703)
((-12, 4, -11, -7, -2, -3, -2, -19), 2, 3.476700978259568)
((-21, 10, 5, 8, -1, -2, -1, -1), 2, 3.500065855907275)
((-4, 2, 12, -8, -9, 0, 1, -7), 2, 3.5216181281071304)
((2, 0, 0, 16, 4, 1, -2, 5), 2, 3.543306673569658)
((1, -12, 19, 22, 14, -2, -4, -6), 2, 3.5686038946784437)
((2, 3, 0, 8, -9, -3, 0, 1), 2, 3.5908249892093242)
((3, -4, -10, 6, -14, 3, 3, 2), 2, 3.6113543566676114)
((-9, 2, 1, 20, 41, 18, 4, 4), 2, 3.632674565194212)
((-2, 0, -25, -11, 28, 8, 2, 4), 2, 3.653805473623711)
((0, 3, 19, -18, -9, -1, 0, 0), 2, 3.678071237275698)
((-6, -33, 17, 11, -7, -7, -9, -21), 2, 3.69825906630578)
((-40, -26, 33, -77, -5, -12, -12, -17), 2, 3.720892401710771)
((-2, 12, -6, 20, 4, 4, 4, 7), 2, 3.7427326153233866)
((6, 12, 3, 4, 4, 4, 5, 4), 2, 3.7610148994001125)
((13, 2, 12, -1, -6, -2, -1, 2), 3, 3.807387151198891)
((48, 16, 3, -12, -2, -7, -4, 1), 3, 3.8343202216407644)
((36, -29, 2, -15, 2, -1, -1, -9), 3, 3.8551187145383046)
((28, 45, 21, 20, 3, -5, -1, 10), 3, 3.873207707250821)
((25, 28, -40, 32, -28, -8, -4, -3), 3, 3.8991851543109393)
((-31, 45, -11, 9, 11, 1, 0, -1), 3, 3.9215590573539383)
((11, -13, -12, 1, 15, 7, -6, -16), 1, 3.9667396308305998)
((5, 1, 9, 3, -2, 3, 6, -7), 1, 3.9890804633747075)
((20, 21, 19, 6, 23, 11, 6, 18), 1, 4.010517559009458)
((28, -1, 28, -15, 4, -1, -1, -8), 1, 4.031052058096884)
((31, 2, 18, 9, 30, 2, 2, 4), 1, 4.051989675162174)
((-20, -21, -17, -9, -15, -8, -7, -7), 1, 4.072865142496789)
((-45, -11, -6, -18, -5, 6, 2, 0), 1, 4.098733684982972)
((28, -11, -3, -14, -27, -6, -3, -1), 1, 4.123269144255227)
((17, -6, -48, -16, -11, -5, -5, -4), 1, 4.143929653347048)
((-31, -11, -2, 3, 5, 5, 4, 0), 1, 4.164204720072481)
((-13, 2, 3, -1, -5, -2, 1, -1), 1, 4.184910273464517)
((-32, -28, -12, 5, 2, -3, -5, -10), 1, 4.205038233487985)
((-2, 8, -5, 3, 2, -4, -2, -1), 1, 4.226925201943861)
((22, 11, -15, 4, 2, 3, 1, -1), 1, 4.247180312333756)
((-16, 10, 9, 2, -2, 1, 0, 0), 1, 4.2702008006481815)
((-11, 24, 4, 46, 17, 1, 2, 3), 1, 4.291935530772954)
((7, -4, 2, -13, 0, -3, -2, 3), 1, 4.322377495183396)
((1, 9, -5, -29, -2, -1, 1, -1), 1, 4.348999816971894)
((17, 5, 0, 9, 15, 4, 2, -4), 1, 4.369514359723781)
((-8, 6, -1, 3, -6, -1, 2, 9), 1, 4.393253846298585)
((-39, -5, -1, -12, -1, 0, -1, 0), 1, 4.41290342445016)
((21, 6, 1, -7, -3, -1, 2, 0), 1, 4.434820042318835)
((-1, -37, -5, 4, 0, -3, -1, -2), 1, 4.456895170509782)
((3, 6, 1, -15, -12, -5, -6, -1), 1, 4.47573338107649)
((1, 5, 0, -10, -3, 1, -3, -2), 1, 4.495063087678445)
((7, -5, -2, -5, -9, -2, 0, -2), 1, 4.519668679215591)
((0, -1, -5, 6, 1, 0, 0, -3), 1, 4.5381573688198795)
((-21, 0, -6, 0, -1, -1, -1, 0), 1, 4.560125873160953)
((-31, -5, -4, -10, -1, -3, 0, -2), 1, 4.583192546137623)
((12, 1, 13, 4, -5, -6, -3, 2), 1, 4.604381042849673)
((18, 3, -19, 3, -2, 4, -6, -8), 1, 4.6252798876059185)
((26, 25, -10, 14, 23, 13, 6, 9), 1, 4.6454477603004625)
((-19, 0, -86, -112, 8, -9, -95, -72), 1, 4.6671249021426835)
((37, 30, 41, -70, 20, 11, 33, 36), 1, 4.688158309618554)
((-57, -14, -21, -15, 1, 1, 25, 73), 1, 4.7083689458892515)
((10, 8, 4, 1, 2, 2, 3, -38), 1, 4.731197853382513)
((21, 13, -22, -54, 10, 3, -1, -15), 1, 4.753018680840606)
((-13, 1, -5, 117, 5, 7, 19, 7), 1, 4.771771934436026)
((-11, 2, 3, -3, 19, 14, 21, 7), 3, 4.7999075166393075)
((6, -4, 4, -42, -5, -4, 7, 10), 3, 4.821796195638229)
((14, 11, 7, -24, 13, 7, 2, 11), 3, 4.841734855564596)
((-4, -2, -4, 19, -2, 1, 6, -5), 3, 4.870910447939908)
((-20, 6, -19, 21, 3, 1, -3, -12), 3, 4.890620465279112)
((-10, -11, 8, -25, -8, -5, 1, -6), 3, 4.910831101549809)
((24, 8, 29, -44, 13, 6, 1, 27), 3, 4.931120992981642)
((-3, 9, 3, 15, 11, 6, 4, -5), 3, 4.950468375195073)
((-56, -6, -8, 7, -2, 1, 1, -1), 3, 4.972359334918057)
((15, 2, -24, -16, -3, 0, 0, -12), 3, 4.998369282296051)
((8, 0, 25, 17, -11, -4, -2, -10), 3, 5.022145830636853)
((-1, 7, -10, -4, 3, 5, 3, -11), 3, 5.040695529609785)
((-6, -3, -22, 17, -6, -3, -2, -12), 3, 5.0626936833636575)
((0, -4, -9, -3, -1, -3, -2, -4), 3, 5.084826970018172)
((2, 3, 2, -10, 12, 3, -2, 0), 3, 5.1060434055999755)
((1, -1, 5, -6, -8, -7, -6, -3), 3, 5.126556237808817)
((0, -1, -3, 23, 7, 2, 1, 0), 3, 5.149890325681694)
((1, -3, -4, -1, -13, -4, -3, -2), 3, 5.170099251409345)
((0, -3, -2, -8, -7, -2, 0, -1), 3, 5.1936009725007395)
((-4, -5, 28, 31, -12, -6, -3, -5), 3, 5.221389314465664)
((-1, 3, 10, 18, -4, -2, -1, 1), 3, 5.243991289914809)
((5, 11, 14, -3, 3, 6, 2, 4), 3, 5.266222077522952)
((0, 2, -3, 3, 1, 2, -1, -5), 3, 5.286248545325685)
((15, 11, -7, 11, 2, 2, -3, 4), 3, 5.30604465999821)
((-4, 3, 87, 105, 0, -3, -3, -3), 3, 5.327854654017011)
((14, 43, 7, -41, 14, 13, 18, 19), 3, 5.348349810614375)
((61, 17, 65, 39, 12, 7, 7, 17), 3, 5.37071573112316)
((-107, -101, -61, -45, -24, -31, -37, -53), 3, 5.392355241018366)
((0, 25, -5, -15, 12, 10, 6, -29), 3, 5.41426957816298)
((-13, -9, 17, -21, -10, -5, 4, -2), 3, 5.434491047872968)
((-17, -39, -27, 42, -31, -1, -6, -10), 3, 5.453685621574281)
((46, 25, 23, -25, 14, 4, 11, 37), 3, 5.47473043267046)
((8, -14, -10, -8, -11, -5, -1, 0), 1, 5.563907883835881)
((-38, 8, 46, -1, 5, 3, -2, -2), 1, 5.586618763858962)
((1, 12, 19, -8, -1, 2, 0, 6), 1, 5.606390930928842)
((-3, 1, 21, 16, 10, 5, 3, 13), 1, 5.626983018298819)
((31, 12, 5, 3, 3, -5, -2, 2), 1, 5.649606090445534)
((-19, -12, 2, 11, 4, -3, 2, 15), 1, 5.671916703395827)
((-2, 3, 14, 0, 5, 3, 3, 1), 1, 5.691953434456837)
((11, 6, 2, 5, 3, 2, 4, 3), 1, 5.7132462742947006)
((19, 4, 2, -14, -2, -2, -2, -3), 1, 5.733682132066467)
((-9, -18, -1, -11, -4, -5, -3, 0), 1, 5.753271271030414)
((-11, 1, -3, -4, -4, -4, -2, -2), 1, 5.7724310636897895)
((3, -2, -4, -2, -5, -6, -7, -8), 1, 5.795766862105713)
((-7, -4, -4, 13, 2, 1, -3, -4), 1, 5.814488185564271)
((3, 1, -2, -7, -10, 0, 1, 5), 1, 5.834808866770934)
((3, -2, -2, -12, -9, -5, -1, 2), 1, 5.857173076736672)
((1, -3, -16, -11, 12, 2, 2, 3), 1, 5.8800533005213165)
((1, 1, 5, -3, 12, 8, 1, -4), 1, 5.90211531454891)
((-2, -1, 13, 1, -7, -2, -2, -4), 1, 5.922443978289787)
((-1, 2, 27, 12, 4, 1, 2, 0), 1, 5.94201031001312)
((-2, -5, -15, 4, -6, -3, -1, -15), 1, 5.965364354221535)
((-3, 3, 33, -6, -2, -3, -1, 0), 1, 5.98683052908807)
((-28, -10, -88, -11, -7, -4, -3, 4), 1, 6.006596994347795)
((24, -2, -65, -81, -2, 4, 3, 8), 1, 6.035646576718711)
((28, 16, 71, 40, 14, 6, 9, 7), 1, 6.056041951638386)
((35, 1, 43, 5, -5, -2, -1, 105), 1, 6.074852793516357)
((-58, -23, -52, -10, -21, -11, -15, -126), 1, 6.095964885972349)
((61, 20, 76, -25, 9, 12, 30, 39), 1, 6.118777828397182)
((15, 26, -23, 115, 44, 30, 42, -2), 1, 6.137309851758638)
((-23, -15, 40, 30, 2, -1, -7, 16), 3, 6.197880181021069)
((43, 20, 40, -40, -8, -5, -4, -12), 3, 6.2213670774060645)
((19, 1, -6, 3, 1, 3, 6, 28), 2, 6.242442678277072)
((23, -20, -14, -8, -5, -3, -4, 16), 2, 6.272912011376252)
((-11, 2, -23, -24, -12, -10, -10, -7), 2, 6.296440530975369)
((-19, 6, -24, 8, -3, -3, -6, -10), 2, 6.316768054354216)
((-8, 11, -47, -3, -1, 0, -1, -4), 2, 6.337949138713067)
((6, 15, 5, 33, -2, -4, -1, 8), 2, 6.361009539698568)
((0, 4, -18, -7, 2, 3, 0, -3), 2, 6.387581115376698)
((-25, -4, 46, 40, -1, -4, -4, 5), 2, 6.411842887761578)
((4, -14, -34, -5, -3, -4, -5, -5), 2, 6.435513382433522)
((12, -16, 9, 10, -4, -2, -4, 0), 2, 6.455990293238394)
((-45, -4, 8, -78, -3, -4, -6, -54), 2, 6.478600821402771)
((15, -8, 16, 8, 0, 2, -2, 14), 2, 6.50455717176532)
((7, -9, 13, 17, 0, -4, -2, 12), 2, 6.524951406322965)
((-4, -10, -48, -7, -8, -2, 1, 8), 2, 6.545168884765847)
((-12, 2, -9, -23, -7, 0, -1, -4), 2, 6.567877484064866)
((6, 9, 16, -2, 0, -3, 0, 9), 2, 6.587637107152408)
((-2, 8, 5, -10, 7, 2, 0, -2), 2, 6.607252474443062)
((3, 1, 1, -19, -4, -2, -2, 0), 2, 6.628125661053614)
((6, 5, 20, 11, 4, 0, 0, 2), 2, 6.652007692882259)
((4, 6, 23, 25, 1, -2, -1, -1), 2, 6.674517869187931)
((-4, 0, -35, -58, 0, -1, -1, 1), 2, 6.6952770195954106)
((5, -1, -23, -9, 2, 1, 1, -1), 2, 6.719098042055411)
((3, 3, 14, -1, -1, -2, -1, 2), 2, 6.74077290317357)
((-50, -13, -4, 3, -1, -2, 1, -3), 2, 6.7624300886802535)
((16, 1, 1, -1, -15, -3, -2, -1), 2, 6.782519276394677)
((-32, -16, -12, -19, -3, 0, -3, -12), 2, 6.804571027163994)
((41, 6, 29, 39, -1, 0, -2, 46), 2, 6.83384069940684)
((44, 16, -31, -28, 4, 5, 17, 74), 2, 6.853686419827703)
((-7, 14, -44, 21, 17, 4, -22, -74), 2, 6.874109163436116)
((4, -24, -3, 73, -11, -25, -95, -58), 3, 6.945186788449729)
((4, 12, -29, -24, 10, 12, 25, 114), 3, 6.965022245612315)
((-22, 2, -17, -83, 8, 0, 14, 27), 3, 6.986502104823218)
((-15, -2, 30, -9, 0, 1, 13, 58), 3, 7.005704661058746)
((1, -3, 11, 11, -7, -5, -23, -82), 3, 7.027897246538859)
((24, 15, 10, -38, 14, 9, 14, 27), 3, 7.053700218208275)
((-12, 4, -23, -58, 11, 1, -18, -61), 3, 7.076336974699358)
((-2, 0, 1, 19, 2, 3, 9, 36), 3, 7.097032264833117)
((7, 2, 0, 29, -6, 1, 15, 68), 3, 7.120752365253397)
((15, 0, -1, 4, 13, 3, 7, 4), 3, 7.145511905664692)
((5, -2, -7, -2, -2, 0, 3, 50), 3, 7.1662419768403876)
((-20, -5, 5, -2, -9, -4, -4, 1), 3, 7.185792343495289)
((16, 8, -30, -10, 18, 6, 1, -7), 3, 7.207107420392752)
((-11, -16, 16, 31, -23, -10, -4, -9), 3, 7.2338095675234015)
((-2, 4, -10, 16, 5, 1, 2, 6), 3, 7.254781395449613)
((3, 1, -11, -17, 6, 5, -1, 5), 3, 7.284147428284057)
((0, 1, 1, 10, 14, 3, 4, 0), 3, 7.309405306902782)
((6, -2, 0, -23, -4, -3, -4, -5), 3, 7.330126825363248)
((-13, -8, 20, 11, 4, 4, 0, 0), 3, 7.351265146145947)
((-7, 0, -6, -16, -9, -5, -2, 1), 3, 7.37105783973238)
((3, -5, -10, -5, -13, -12, -9, -9), 3, 7.39107119337176)
((4, 1, 3, -15, 7, 4, 1, -2), 3, 7.412259690083811)
((0, 3, 2, 17, 15, 5, 1, 1), 3, 7.432894541029941)
((-2, -6, -40, -28, -16, -8, -3, -4), 3, 7.45774816130877)
((3, 8, 18, 11, 4, 5, 2, 3), 3, 7.479209774727183)
((7, -15, 6, 6, -5, -3, -5, -11), 3, 7.500134277629119)
((-26, 4, -20, -91, 4, 2, 3, 2), 3, 7.522156949166652)
((48, 21, 39, -2, 11, 4, 3, 9), 3, 7.543409876333439)
((-24, -11, -74, -62, -12, -9, -8, -8), 3, 7.5625388792179855)
((-83, -11, 1, 21, 5, 8, 8, -7), 3, 7.58507585403138)
((-2, 68, 21, 12, 23, 19, 18, 0), 3, 7.60611667386045)
((-4, -38, 7, -3, 15, -2, -10, -30), 3, 7.631633414660152)
((-21, -39, 20, 29, 2, 2, -6, -50), 3, 7.653179414868839)
((-22, -13, 20, -12, -7, -4, -1, -2), 3, 7.6729042569144426)
((23, -17, -5, 3, 10, 5, 0, 5), 1, 7.760718975453137)
((22, -64, -10, -12, -12, -4, -3, -2), 1, 7.780432413878434)
((10, 24, 4, -5, 0, 1, 3, 34), 1, 7.800580900418455)
((19, 11, 2, -11, -5, -1, -6, -10), 1, 7.819880957607611)
((17, 9, 8, -13, -3, 0, -7, -33), 1, 7.8397620292514265)
((17, 19, 15, 7, -1, 0, 2, -10), 1, 7.867757917105943)
((10, -30, -15, -3, 5, 0, 1, -3), 1, 7.888501672626009)
((3, 1, -37, -2, 5, 2, 5, 19), 1, 7.910803162680056)
((5, 8, 26, -10, 1, -2, 4, 28), 1, 7.934916117819924)
((1, -5, 10, 1, -4, -3, -2, -11), 1, 7.962027654919607)
((-10, 6, 15, 8, -8, -1, -5, -4), 1, 7.99316238926372)
((12, 8, 0, -8, -8, -1, 2, -1), 1, 8.013685484730837)
((-12, 3, -3, -6, -7, -3, -3, -6), 1, 8.034634505416435)
((7, -7, -8, -1, -2, -2, -2, 13), 1, 8.055490586596527)
((8, -4, -1, 4, 3, -5, 6, -4), 1, 8.077473915644)
((0, -9, -5, 1, 0, -2, -4, 2), 1, 8.098494208956517)
((-2, 4, 21, 11, 1, 3, 2, -10), 1, 8.12270637559306)
((-5, 2, -16, 3, -2, -2, 0, 1), 1, 8.14564361747924)
((-3, 0, 7, 0, -3, 0, 0, -3), 1, 8.167429093714382)
((-1, -2, -20, -8, -2, 1, -1, -1), 1, 8.185797475124428)
((-23, -8, -33, -2, -14, -4, -1, -16), 1, 8.209150949151827)
((0, 2, 57, 18, -4, -2, -3, 2), 1, 8.234259440344527)
((-24, -6, -15, -18, -2, -7, -5, 6), 1, 8.258402615078209)
((-62, 1, 33, 20, 5, 6, -23, -3), 1, 8.280448664037372)
((24, 7, 10, 10, 7, 12, 21, 20), 1, 8.300736844926158)
((16, -14, -49, 10, 5, 2, 7, 19), 1, 8.322845613797012)
((-6, 4, -98, -39, -1, -4, 6, 51), 1, 8.342869230694669)
((14, 5, 54, 32, -2, 2, -15, -2), 1, 8.365504276642707)
((45, 11, -12, -31, 5, 8, 16, -14), 1, 8.386953916259795)
((-31, -50, 45, 56, 3, -3, 28, -45), 1, 8.409697296600752)
((-57, 9, -2, 32, -2, -4, 26, 66), 1, 8.436662297179486)
((112, 13, -15, -48, -1, 0, 20, 64), 3, 8.459593267074498)
((-22, -7, 8, 28, 4, 5, 8, -8), 2, 8.501997629187338)
((11, 6, -17, 46, -9, -9, -14, -27), 2, 8.525717729607619)
((25, 14, 24, -79, 1, 1, -2, -31), 2, 8.547723295714691)
((-3, 6, -3, -22, -3, -2, -1, -6), 2, 8.568705386899179)
((2, -2, 2, 7, -1, -2, -3, 9), 2, 8.588259174640173)
((-52, 6, 25, 20, 2, 0, -3, -4), 2, 8.617533408331143)
((4, -12, -10, 17, -1, -2, 2, -7), 2, 8.641405176901511)
((17, 0, -4, -4, -3, 1, 3, 15), 2, 8.66279209660691)
((-10, 77, -4, 40, 3, 3, 5, 2), 2, 8.68493336579564)
((12, -20, -13, -17, -2, -2, -2, 0), 2, 8.706656692300104)
((-12, -40, 45, 19, -6, -6, -5, -20), 2, 8.729898410848492)
((-17, -18, -1, -10, -9, -7, -5, 0), 2, 8.750794974880675)
((-16, 4, 3, 2, 3, 4, 2, -4), 2, 8.774042395239217)
((-3, 0, -5, -20, -4, -2, -1, 0), 2, 8.794909880039617)
((-5, 7, -25, 13, 5, 3, 0, 6), 2, 8.815959822764933)
((-4, 0, -17, -6, -3, -4, 0, -1), 2, 8.84295276221342)
((-12, -7, 2, 6, 5, -3, -1, -4), 2, 8.863437085371492)
((26, 10, 8, 0, -23, -4, 1, 7), 2, 8.883942505227134)
((-10, -9, -12, -11, -5, -6, -5, -2), 2, 8.90838331445084)
((127, 19, 13, 31, 40, 6, 5, 16), 2, 8.931209371039024)
((10, 4, 17, 16, 12, 4, -3, -11), 2, 8.956521416854208)
((81, 59, 34, 46, 13, 17, 29, 121), 3, 9.024551994521701)
((-5, 10, 7, 31, 4, -7, -1, -18), 3, 9.045020352611344)
((-43, -34, 91, 76, -24, -13, 11, -39), 3, 9.067747197702854)
((27, 9, -51, -40, 11, 9, 11, 52), 3, 9.135343297436638)
((-17, 30, -7, -33, 17, 11, 5, -61), 3, 9.157501101874812)
((-29, -22, -3, -11, 14, 9, 20, -14), 3, 9.177583447417051)
((61, 14, -14, -31, 0, 3, 9, 29), 3, 9.198989183095957)
((-6, -3, 23, 23, -11, -6, -36, -58), 3, 9.219913115816878)
((-2, 12, -11, 4, -9, 6, 9, 19), 3, 9.243021982188685)
((-20, -9, 0, 37, -7, -9, 2, 11), 3, 9.266603528622232)
((1, -3, 1, -50, 2, 2, 6, 24), 3, 9.290478148097677)
((-3, -9, -55, -5, 0, -4, 6, 17), 3, 9.313926272173626)
((13, 8, -17, 29, 13, 8, 11, 17), 3, 9.33776668078815)
((-7, -1, -9, -9, -1, 2, 0, -17), 3, 9.3622017882017)
((-16, -9, -5, 2, -3, 0, 2, 6), 3, 9.383690200127834)
((-5, 4, -6, 36, 0, 1, 0, -6), 3, 9.407457055391376)
((-5, -1, 12, 41, -7, -2, -3, -4), 3, 9.428925510981971)
((5, 1, 12, -10, -3, -3, -3, 1), 3, 9.447438718369922)
((0, -7, 18, 2, -9, -4, -2, -3), 3, 9.540988317561176)
((-4, -4, -8, -5, -7, 3, 1, -1), 3, 9.559280864896179)
((-2, -2, 27, 8, 7, 6, 1, 1), 3, 9.579386017679033)
((-21, 0, 14, 5, 5, -3, -3, 29), 3, 9.606047681957591)
((-2, 2, -15, -16, 0, 0, 1, 0), 3, 9.626566215976586)
((0, -4, 5, -11, -5, -2, -1, -3), 3, 9.64779861662682)
((-2, 3, 15, -4, -3, -2, 2, 5), 3, 9.669064657956962)
((-5, -5, -42, -3, 3, 3, 3, 4), 3, 9.691487026386266)
((-2, 2, 6, 20, 1, 1, -10, -12), 3, 9.712647584228565)
((-38, -15, -51, -80, -26, -13, -7, 14), 3, 9.732983090141627)
((18, 1, -29, -19, 1, -2, -8, 11), 3, 9.75831623265438)
((-40, -14, -34, -16, -6, 0, 6, -31), 3, 9.778086689181213)
((83, -5, 61, -27, 2, 4, 28, 25), 3, 9.799122377381147)
((-11, 36, 12, 5, 6, 3, -3, -17), 2, 9.840625283308691)
((-13, -3, 25, 28, 3, 2, 6, 14), 2, 9.862069221115627)
((87, 3, -7, -90, -4, -4, -4, -18), 2, 9.884322815964385)
((4, 86, 29, 64, 18, 13, 6, -3), 2, 9.907870151537008)
((-10, 14, 79, -1, -1, -3, 2, 13), 2, 9.929344879118775)
((-18, -34, -29, -1, -1, 1, 0, -5), 2, 9.956216370010987)
((-1, -14, -45, 27, -4, -3, 1, 5), 2, 9.983425978245313)
((-27, -1, -13, 10, 1, 0, 0, -3), 2, 10.004934346506985)
((-1, -29, 21, -27, -6, -2, 1, -8), 2, 10.02522765902491)
((-10, -23, -19, 13, -4, -2, 0, -13), 2, 10.042766997238614)
((-6, 11, 31, 36, -1, -2, -2, 3), 2, 10.063639043487136)
((25, 19, -14, -6, 2, 1, 0, 13), 2, 10.090601193160794)
((-16, 4, 7, 15, 10, 6, 6, 7), 2, 10.11668355352774)
((13, 7, -35, -7, 0, -2, -3, -4), 2, 10.137954726487019)
((15, -18, -12, 28, -3, -9, -6, 5), 2, 10.160324068081893)
((-101, -8, 2, 8, 0, -5, -11, -32), 2, 10.181976692140454)
((-9, -8, 1, 13, 9, 3, 3, -23), 2, 10.201381092455422)
((-3, 7, 26, 8, 3, 1, 1, 39), 2, 10.22314091054487)
((33, 0, -8, 2, -1, 1, 3, 4), 2, 10.242223728767172)
((14, 70, 32, -4, 2, 0, 1, -9), 2, 10.268571223306264)
((-12, -5, 8, -3, 2, 2, 0, 0), 2, 10.291985706702306)
((-1, -17, 3, 2, -1, -1, -1, -9), 2, 10.312762532721264)
((-9, -5, -7, -2, 1, -3, -2, -2), 2, 10.334253795552474)
((-1, -3, -11, -14, -3, -1, -1, -2), 2, 10.35534707203496)
((-3, -8, -17, 7, -3, -3, -2, -3), 2, 10.375219020782527)
((3, 13, 10, -18, -9, 1, 1, 1), 2, 10.396226199931693)
((-3, -11, -65, 44, 15, 3, -1, -2), 2, 10.414929847778774)
((0, -2, -7, -17, -15, -8, -2, -2), 2, 10.443698330909113)
((-1, -5, 18, -3, 11, -3, -2, -3), 2, 10.469101035505743)
((6, -1, 2, 9, -18, -3, -2, 1), 2, 10.49667099814178)
((5, 4, 29, -4, 3, 0, -1, 1), 2, 10.515632937988823)
((-1, 2, 0, -1, -9, -3, 0, -2), 2, 10.537299816572768)
((-4, -1, 30, -7, 2, 4, 3, 2), 2, 10.559161697063967)
((-4, -3, -2, 23, -7, -3, -3, 1), 2, 10.578895662005817)
((-16, -13, -5, -13, 5, 0, -1, -5), 2, 10.59871059265185)
((26, 10, -9, -3, -1, 1, 2, 6), 2, 10.625709804091505)
((39, -83, -1, -14, -1, -6, -11, -34), 2, 10.649295911973175)
((-9, 34, -19, -16, 8, -2, -4, -5), 2, 10.667673416279467)
((-22, 15, 1, -10, 3, -4, 0, 27), 1, 10.80912506293373)
((-30, 91, 12, 6, -3, 1, 8, 16), 1, 10.838991714699665)
((-10, -12, -1, -16, -12, -9, -10, -15), 1, 10.859911656153479)
((4, -24, -5, 3, -5, -2, 1, -3), 1, 10.879430092671521)
((-33, 3, -3, 28, -17, -1, -3, -4), 1, 10.899929810717008)
((7, 11, 3, 0, -5, 1, 4, 57), 1, 10.92244853973791)
((-23, -12, 11, -6, -2, -1, 19, 94), 1, 10.944360596158463)
((0, 7, -4, -9, 5, -2, -25, -27), 1, 10.965935105417916)
((4, 6, 11, -6, 6, 6, 28, 7), 1, 10.992504400371987)
((-30, -6, 34, 26, 11, -1, -3, -1), 1, 11.018107238505008)
((1, -12, -18, -1, 4, -1, -5, -10), 1, 11.03960591368942)
((-13, -19, -9, -5, 7, 1, 1, 18), 1, 11.060281247487639)
((10, 15, 7, -7, -2, -2, -3, 8), 1, 11.07883379736565)
((-11, 7, 2, -22, -21, -3, -5, -27), 1, 11.103093859207483)
((-5, 3, 5, 4, 7, -4, -8, -48), 1, 11.12407366966791)
((3, -3, -16, 2, 3, 1, 9, 37), 1, 11.144449658433063)
((-5, -21, -5, 4, -1, -2, -2, -2), 1, 11.16542091617826)
((-10, 2, -4, 0, -1, -1, 2, -8), 1, 11.18897965537119)
((-6, -5, -5, -8, -1, -1, 1, 15), 1, 11.210652805946303)
((-5, 0, -1, -4, -9, -3, -6, -3), 1, 11.231883496053491)
((-4, 0, 9, 3, 2, -1, -2, -2), 1, 11.257728661118046)
((-6, -3, -2, -1, -3, -2, -2, -6), 1, 11.27856592632463)
((-1, 4, -3, -4, 3, 0, 1, 3), 1, 11.300091970197778)
((-2, -6, -89, -17, -9, -2, 1, 1), 1, 11.321255949126169)
((0, -1, -14, 3, -3, 0, 1, 4), 1, 11.343795204663625)
((-2, -2, -14, 3, -1, -1, -4, -18), 1, 11.366483847627107)
((-4, -3, -3, -2, -1, -2, -5, -1), 1, 11.392099799923482)
((-20, 7, -44, -79, 8, 10, 9, 1), 1, 11.413751853801026)
((-49, -21, -17, -15, -18, -11, -14, -48), 1, 11.432326640738635)
((67, 17, 106, 59, 7, 15, -4, 21), 1, 11.454717649212096)
((7, -5, 52, -92, 6, 8, 13, 41), 1, 11.476926769941654)
((73, 0, -9, 31, 14, 20, 40, 53), 1, 11.498225311589671)
((-91, 10, 40, 51, 25, 30, 99, -15), 1, 11.5240362657933)
((-45, 12, 29, -82, 6, -2, -24, 24), 1, 11.545191121825447)
((-8, -64, -118, -40, -25, -15, -19, -10), 2, 11.630083092479369)
((16, -3, 56, 54, 6, 1, 0, -14), 2, 11.653365293879848)
((22, 10, 2, -3, 2, -1, -5, 5), 2, 11.672677895051342)
((6, -48, -13, -13, -7, -8, -7, -4), 2, 11.693004848249174)
((-2, 11, 20, 24, 6, 4, 6, 20), 2, 11.714785192855176)
((15, -13, -33, -18, -3, -2, -9, -55), 2, 11.738615908392438)
((-11, -18, 11, 45, -2, 2, -2, -16), 2, 11.76755259492231)
((-16, -9, -56, -33, -1, -2, 2, 5), 2, 11.790907779492755)
((2, -22, -67, -102, -6, -1, -1, -20), 2, 11.811299163145323)
((-3, -18, -38, -22, -3, -2, 3, -28), 2, 11.832310903742611)
((-23, -4, 20, -7, -1, 1, 0, -8), 2, 11.853352863933713)
((-11, 1, 48, 4, 0, -2, -2, -2), 2, 11.873101083400947)
((-14, 1, 51, -29, 4, 2, 1, -10), 2, 11.89776483340166)
((37, 66, 33, -15, 1, -3, -4, -23), 2, 11.917247918696749)
((20, 13, 11, -9, -5, -4, -2, 1), 2, 11.93706912133395)
((9, 13, 0, 11, 1, -1, 1, -2), 2, 11.958201170125479)
((6, 16, 8, 6, -1, 0, 0, -5), 2, 11.978105049009908)
((-8, -2, 11, 7, -1, 1, -1, -4), 2, 11.99988938488302)
((16, 96, 17, 0, -4, -3, 0, 7), 2, 12.025094236667314)
((-9, -4, 24, -13, -2, -2, -1, -10), 2, 12.047304497758903)
((0, -4, -13, 12, 8, 0, 0, -2), 2, 12.070177879371364)
((-2, 15, 8, -13, 3, 5, 0, -2), 2, 12.09090053819386)
((-1, -2, -28, 5, -3, -2, -1, -3), 2, 12.113175229740186)
((5, 7, -8, 11, 12, 0, 0, 1), 2, 12.137123972747629)
((-3, -3, 3, -7, -7, -2, -1, -2), 2, 12.15821382814402)
((10, -1, 14, -5, 2, -1, -2, 1), 2, 12.17636154950112)
((-42, -21, -50, 5, -13, -6, -5, -10), 2, 12.208288835456592)
((-16, 2, -10, 18, 6, 1, -1, -6), 2, 12.230862872035985)
((21, 12, 28, -6, 0, 5, 5, 7), 2, 12.25126451894683)
((64, -24, 49, 23, -3, -5, -8, -11), 2, 12.270986510087358)
((-7, -9, -14, -9, 2, -1, 1, 24), 2, 12.292604923284996)
((61, -16, -26, 6, -7, -13, -19, -41), 2, 12.312994026213502)
((11, 17, 22, 11, 8, 5, 0, -4), 1, 12.41949870825491)
((9, -19, -30, 2, -15, -8, -10, -4), 1, 12.440339964728603)
((-57, -3, -26, 11, -1, 4, 6, 47), 1, 12.463747035771446)
((-80, 95, 14, -1, 2, 4, -2, -32), 1, 12.488602366593323)
((8, -23, 20, -1, -5, 0, -3, 16), 1, 12.510169463499578)
((12, 18, 1, 5, 1, 2, -1, -10), 1, 12.538333554753628)
((-2, 34, 3, 8, 9, -1, -5, -2), 1, 12.559512928569433)
((-38, 88, 12, 7, 5, 4, 6, -8), 1, 12.57850280728623)
((47, 0, -28, -6, -2, -3, -2, -7), 1, 12.602241153499001)
((36, -32, -18, -15, -2, -5, -10, 14), 1, 12.624012375208757)
((21, -13, -23, -5, -3, -2, 0, -12), 1, 12.648647045977686)
((-17, -98, 10, -14, -3, -2, -5, -3), 1, 12.669927912014227)
((18, -11, -11, 5, -5, -7, -8, 1), 1, 12.691391235975685)
((-77, 92, -13, -5, 9, 5, 9, -3), 1, 12.711548845411953)
((-59, -20, 1, -8, -13, -4, -5, -3), 1, 12.732448260349212)
((28, 4, -8, 3, 4, 2, 2, -2), 1, 12.75318574387811)
((16, -18, -12, 6, -1, 0, -3, 4), 1, 12.772815935875162)
((40, 5, -6, 3, 1, 0, -1, 1), 1, 12.794087108834441)
((18, -19, 8, -23, -10, -4, 2, 13), 1, 12.814723100142603)
((17, 4, 5, -12, 2, -1, -8, -15), 1, 12.834868165596532)
((-3, 2, 7, 0, -2, 1, 1, 0), 1, 12.857488957019186)
((-11, -17, -4, 1, -8, 0, 0, -4), 1, 12.883896890745905)
((-41, -35, -31, -16, -19, -3, -4, -2), 1, 12.904589329974588)
((-3, -2, -8, 5, 0, -1, 2, -4), 1, 12.925475630748494)
((6, 1, 10, -4, 4, 4, 2, 1), 1, 12.945232402930959)
((1, 6, 13, -5, -2, -3, -2, 0), 1, 12.967594332172634)
((3, 2, 8, -8, 0, -1, -2, 1), 1, 12.989252087860333)
((-16, -16, -8, -27, -9, -4, -5, 10), 1, 13.009461013587984)
((26, 7, 26, 36, 3, 10, 10, -14), 1, 13.041615801768588)
((-21, -3, -11, 110, -2, 2, 10, -3), 1, 13.065289717526623)
((0, 0, 1, -19, -3, -2, 2, -69), 1, 13.086173167395453)
((51, 44, 87, 3, 32, 14, 8, -5), 1, 13.105182432266771)
((48, 23, -35, -62, 19, 12, 9, 50), 1, 13.129199026815042)
((-27, -14, -49, 66, -17, -11, -10, 2), 3, 13.175790228123722)
((19, -19, -78, 50, -5, -5, -1, 25), 3, 13.196698195776213)
((-6, 6, 7, -68, 11, 1, -5, 12), 3, 13.217309099119698)
((7, 31, 12, -44, 12, 9, 8, 10), 3, 13.242341756237353)
((-3, -6, -6, 7, 25, 8, 6, 9), 3, 13.267112700268955)
((-3, -4, -52, 14, -1, 1, -2, -8), 3, 13.288520146490907)
((2, 8, 15, 43, 8, 7, 2, 5), 3, 13.309197190832174)
((-8, -12, -29, -22, -4, -3, -2, -4), 3, 13.329990552100575)
((-7, 0, -45, 3, 3, 2, 3, -7), 3, 13.354978735099031)
((-7, -6, 19, -5, 4, 0, -3, 3), 3, 13.374901429956969)
((9, 5, -19, 2, -2, 2, 2, 5), 3, 13.397205200735078)
((14, 11, 33, -13, 5, 6, 3, 1), 3, 13.424110332307198)
((3, 5, 0, 52, 10, 3, 1, 0), 3, 13.444553032251148)
((6, 0, -15, -2, 3, 0, -1, -1), 3, 13.467805014057813)
((-9, -19, 45, 82, -7, -7, -7, -7), 3, 13.48988755460196)
((7, 8, -30, -31, -3, -3, -4, 2), 3, 13.509247480797729)
((-1, 2, -28, -11, 13, -4, -5, -4), 3, 13.532359768255628)
((2, 4, -4, -28, 15, 5, 7, -1), 3, 13.557739665611642)
((3, 7, 18, 5, -6, -1, 0, -1), 3, 13.577428016072263)
((-3, -8, -28, -8, -9, -2, -2, 0), 3, 13.5985566437777)
((-1, -1, 10, 56, -4, -4, -5, -1), 3, 13.619120792277924)
((2, -3, -67, 1, 11, 2, 4, 1), 3, 13.640050426809)
((0, 1, 5, 14, -3, 1, 3, -1), 3, 13.662268670434804)
((3, 4, 21, -4, 2, 2, -2, 2), 3, 13.687276239587781)
((34, -1, 47, 35, 2, -2, -9, 4), 3, 13.706913273757019)
((4, 7, 18, -20, 6, 0, 1, 0), 3, 13.726999610566367)
((32, 13, 97, 27, 7, 4, -4, 9), 3, 13.75028238214786)
((-7, 6, 59, -3, 4, 1, -3, -2), 3, 13.770284902347948)
((-22, 7, 127, 42, 7, 2, -27, 10), 3, 13.792356609452803)
((46, -24, -57, -18, -25, -10, -4, 9), 3, 13.812400752867013)
((-3, 12, -21, -68, 25, 14, 13, -8), 3, 13.837173977622676)
((50, -1, -10, 5, -4, 7, -12, 3), 3, 13.859044981010122)
((107, -24, 3, 22, 1, -8, -4, 18), 3, 13.87755590767401)
((-23, 22, 82, 36, 11, -1, -5, 14), 2, 13.922387530369265)
((18, 19, -12, -32, -9, -5, -1, 22), 2, 13.955326317446)
((23, 12, 17, -6, 9, 6, 5, -5), 2, 13.977961363394037)
((-43, -6, 44, -44, -24, -12, -4, -18), 2, 13.997941646534525)
((7, 8, 30, 15, -2, -8, -1, -2), 2, 14.01761232138367)
((10, -3, -23, -6, -7, -1, 1, 5), 2, 14.039441701556994)
((50, 4, 8, -17, -10, -5, -3, 25), 2, 14.060555504556032)
((-22, -16, 38, 12, -14, -3, -2, -21), 2, 14.085608118009224)
((-12, -22, -75, -3, 8, 3, 0, -5), 2, 14.11413712511311)
((-9, -22, -15, 1, -5, -4, -2, -10), 2, 14.135689397312966)
((-2, 11, 7, 8, -6, -4, 0, 0), 2, 14.157840359578955)
((-9, 10, 10, 16, 1, 2, 0, 0), 2, 14.177607965200712)
((6, 9, 29, -9, -2, -2, -1, 2), 2, 14.20349076221228)
((-3, 10, 24, -11, 11, 3, 0, 8), 2, 14.224114779719118)
((2, 5, -18, -12, -15, -1, 0, 0), 2, 14.245641963954297)
((-3, 0, 14, 13, 1, -3, -1, 0), 2, 14.2668954613021)
((-5, -2, -4, 24, -12, -2, -2, -2), 2, 14.289734632053639)
((5, 4, 3, -10, -11, -4, -1, 2), 2, 14.31174133852274)
((-26, -17, -50, -53, -9, -9, -5, -10), 2, 14.33557604532711)
((-103, -37, 11, 16, 7, 1, -3, -26), 2, 14.356485153341632)
((41, 32, -32, -10, 3, 6, 9, 19), 2, 14.37640271657043)
((79, 39, -8, -46, -12, -4, -1, 13), 2, 14.398821093732627)
((-29, -53, 31, 12, -1, -4, -9, -14), 2, 14.419263223495562)
((41, -5, -50, -31, -17, -8, -2, 7), 2, 14.439149426768516)
((-6, 15, 27, 13, 4, 6, 6, 8), 3, 14.458795013652985)
((60, -34, 19, 20, 8, 0, -4, -2), 3, 14.480667157402461)
((-57, 14, 7, -4, 7, 8, 11, 8), 3, 14.516036626147702)
((2, -5, 8, -15, -12, 0, 2, 22), 1, 14.56824125955267)
((22, 44, 46, 21, -11, -7, -5, -4), 1, 14.595379595160075)
((52, 0, -4, -42, -9, -3, -1, 0), 1, 14.617756919289167)
((-14, -5, -3, 10, 0, 1, -3, 0), 1, 14.641935445245803)
((26, -2, 6, 1, -2, -4, -7, -5), 1, 14.666078619979485)
((-8, -8, 0, -18, 2, 0, -2, -4), 1, 14.686611408523865)
((-2, -59, 41, 16, -7, -5, -4, -8), 1, 14.706788404114654)
((-19, -51, 2, -4, -6, -4, -7, -19), 1, 14.728605810486656)
((-7, -19, -7, 2, -4, -2, -3, -1), 1, 14.748839824178981)
((-11, -12, 4, 9, 3, 1, -1, 4), 1, 14.768589754189263)
((26, -19, -34, 4, -1, -2, -1, -3), 1, 14.787389762627942)
((27, 36, 10, 15, 2, 0, 4, -2), 1, 14.81129346133517)
((-21, 12, 4, -6, -5, -1, -2, -3), 1, 14.832666126515186)
((11, 3, -4, 6, 1, 0, 4, 20), 1, 14.852784963642408)
((-23, 5, -12, 0, 9, -1, -1, -1), 1, 14.872670596734345)
((18, -27, -9, -3, -11, -3, 0, -7), 1, 14.893174876227956)
((16, 22, -3, -14, -2, -4, -5, -3), 1, 14.915550489814)
((40, 4, -2, -14, -5, -5, -6, -2), 1, 14.940390425748463)
((8, 2, 1, 5, -9, -5, -2, -6), 1, 14.966033746733576)
((-18, -7, -3, -19, -13, -4, -1, 1), 1, 14.987167506068152)
((-4, -5, -2, 2, -1, -2, -4, -3), 1, 15.006878093588371)
((-8, -3, -5, -3, -1, -2, -4, -3), 1, 15.03050981595127)
((7, 8, 1, -4, -5, 1, 2, 3), 1, 15.051747348230643)
((-27, -34, -3, -4, -3, -3, -2, -4), 1, 15.073476946726277)
((-1, 18, -10, 1, 5, 7, 4, 3), 1, 15.10781267729066)
((7, 3, 2, -2, -6, 2, -1, 5), 1, 15.128369983618699)
((14, 14, 7, -13, -1, 1, 5, 5), 1, 15.150225021937715)
((-67, -12, -4, 2, 1, 1, -7, -9), 1, 15.172222605510571)
((-19, 0, -9, -12, -3, -2, -3, -15), 1, 15.192007886743804)
((105, 34, 22, 32, 15, 14, 24, 45), 1, 15.214652625769103)
((4, -1, 37, -17, -2, -12, -9, 11), 1, 15.240169366568805)
((-15, 3, 11, -5, -4, -2, -23, -66), 1, 15.260776278645181)
((17, 14, 0, -31, 13, 6, 14, -13), 1, 15.280189801856395)
((8, -27, -77, 42, -46, -14, 27, -5), 1, 15.301691327945884)
((11, 1, -42, 78, 3, 5, 13, 11), 1, 15.323257854671123)
((16, -4, 7, -21, 2, -14, 6, -10), 1, 15.344652756910737)
((-28, 3, -9, -88, -14, -9, -9, 4), 1, 15.369212733966652)
((-9, -3, 7, -28, 4, 1, -14, -10), 1, 15.389529994087223)
((-7, 10, -79, -11, 6, 5, -3, 15), 3, 15.435906237153109)
((-7, 5, 14, 33, 5, 2, 2, 1), 3, 15.525754791373618)
((-1, 12, 14, -6, 4, 2, 1, 7), 3, 15.544421947635715)
((-13, -1, 20, -17, -2, -3, -8, 4), 3, 15.565524347014447)
((18, 4, -21, -2, -5, 0, 0, 11), 3, 15.587953557615936)
((23, 10, 4, -29, -4, 3, 3, 8), 3, 15.614106050247772)
((10, -1, 19, -16, 4, 1, 2, -3), 3, 15.639240199586162)
((5, 4, 3, 3, -3, 0, 0, 3), 3, 15.659487897622858)
((6, 0, 1, -11, 5, -1, 0, -3), 3, 15.678419617876088)
((12, 5, 7, -13, -1, 2, 2, 1), 3, 15.69849911251325)
((4, 1, 11, 3, 8, 2, 0, 3), 3, 15.720055946161228)
((4, 1, 7, -24, -6, -4, 0, 1), 3, 15.742344322051922)
((-4, -1, -1, -12, -8, -7, -4, -1), 3, 15.766215520441275)
((5, 3, 0, 13, 11, 4, 3, 2), 3, 15.786428437436033)
((3, -2, -6, 9, -4, -2, -2, 1), 3, 15.805735336797373)
((-15, 2, 19, -8, 4, 1, -1, -2), 3, 15.834871586682624)
((-2, 6, 27, -29, 2, 4, 4, 3), 3, 15.85716452402144)
((-7, 1, 8, -9, -3, -2, 2, 2), 3, 15.879722025351388)
((-12, -9, -11, 2, -7, -9, -9, -10), 3, 15.900648808977387)
((-66, -64, -64, -57, -25, -17, -18, -21), 3, 15.92139256449745)
((42, 23, -5, -6, -6, 0, -2, -11), 3, 15.941997766030783)
((38, 22, -3, -11, 2, 6, 6, 13), 3, 15.961829802107275)
((4, 8, 24, 4, 11, -3, -5, -17), 3, 15.982343204497132)
((16, -24, -11, 9, 25, -2, -4, 17), 3, 16.004282629606422)
((27, -7, 53, -28, 21, 6, 1, 3), 1, 16.11905949781877)
((-71, 1, 4, 21, -4, -3, 0, -1), 1, 16.14288565190791)
((11, 1, -20, 3, -3, -6, -3, -8), 1, 16.165875350447507)
((41, 10, 15, 14, -1, 0, 6, 15), 1, 16.18675708977329)
((23, -36, 4, -4, -9, -5, -9, -14), 1, 16.20838633641022)
((5, 8, 22, 7, -11, -1, 2, 2), 1, 16.233343729633848)
((8, -15, -3, 13, 0, -3, 0, 14), 1, 16.256937820049732)
((45, 10, 1, 3, 8, 2, 1, 0), 1, 16.278831060496778)
((-27, -8, -9, -4, -10, -2, -3, -13), 1, 16.302211903212914)
((-34, 16, -2, 50, -20, 0, 2, 4), 1, 16.322838201443812)
((-2, 12, 5, -29, -2, -2, -5, -5), 1, 16.34435683296376)
((6, 19, 13, -22, -8, -5, -3, -7), 1, 16.373491372305967)
((31, 10, -2, 26, 4, 3, 6, 1), 1, 16.394692413000357)
((-19, -10, -3, -1, 8, 2, 1, -9), 1, 16.41405404973917)
((3, 8, 3, -16, -3, -1, -5, -5), 1, 16.43337463344488)
((-41, -27, -4, -6, 0, -5, -6, -13), 1, 16.45562024575942)
((-44, -4, 6, 8, 4, -1, -3, 0), 1, 16.47622088584463)
((10, -3, -1, 5, 2, 1, 1, -4), 1, 16.49715223091875)
((1, 8, -1, -15, -13, -5, -6, -3), 1, 16.516549218880517)
((5, -1, -13, 1, 1, 6, 6, 6), 1, 16.53750622210033)
((-1, 2, 4, -34, 3, 0, -5, -21), 1, 16.558118265805845)
((3, 0, -3, 5, 0, -1, -3, 1), 1, 16.586538368335795)
((7, -8, 9, -6, 4, 0, 1, 6), 1, 16.607078569233373)
((1, 4, 2, -30, -6, 0, 0, 5), 1, 16.63952985154197)
((1, 8, 3, -11, -3, 0, 2, 5), 1, 16.662358759035232)
((1, -6, -2, 24, 11, 2, 0, -4), 1, 16.678551329690638)
((-4, -10, -89, -28, -4, -6, -6, -4), 1, 16.701844934711424)
((1, 7, 45, 30, 16, 5, 4, 35), 1, 16.72136394141048)
((-1, 8, 40, 10, 2, 2, 2, 4), 1, 16.75247529833296)
((-36, -6, -38, -80, -1, 4, 7, 8), 1, 16.77276804066987)
((-4, 3, 36, 12, 0, -1, -17, 15), 1, 16.79278139430925)
((1, 3, 1, 1, 5, 3, -6, 4), 1, 16.814619897378822)
((34, 1, 19, -66, -20, -12, -61, 66), 1, 16.83551817195405)
((-122, -27, -9, 39, -16, -13, 28, -128), 1, 16.855392971606697)
((117, 33, 32, 81, 17, 29, 102, 34), 1, 16.87545878189949)
((-28, 5, 23, -80, 2, 10, -2, 39), 3, 16.918721266440457)
((32, -15, -119, -40, -8, -11, -20, -6), 2, 16.961790459617216)
((9, 58, 25, -88, 4, 4, 11, 44), 2, 16.98674158084967)
((19, 6, -74, -22, -14, -9, -12, 4), 2, 17.006942524043108)
((-36, -16, 45, -13, 13, 6, 3, 28), 2, 17.032804224357108)
((38, 37, -16, -37, 11, 7, 5, 19), 2, 17.05424474107795)
((46, 28, -21, 15, 12, 6, 1, 45), 2, 17.08026153062813)
((14, 12, -71, 29, -2, -3, -3, -21), 2, 17.102890304584996)
((23, 5, -13, -15, 0, -1, -3, 9), 2, 17.12175759438349)
((-2, 7, 9, -20, 8, 4, 4, 6), 2, 17.150038002564674)
((-12, -11, -63, -32, -11, -1, -3, 6), 2, 17.172963270649532)
((-10, 11, 22, -6, 3, 5, 2, 9), 2, 17.191995342761466)
((-1, -4, -45, 5, -4, -4, -5, -12), 2, 17.213676475870795)
((-13, -31, -87, -47, -13, -3, -1, -5), 2, 17.23918808504136)
((-5, 5, 11, 57, 8, 4, 4, 4), 2, 17.262909896004686)
((-3, -3, -8, -46, -1, -2, -2, 2), 2, 17.284614976716657)
((-3, 7, 33, 16, 7, 5, 7, 1), 2, 17.305872465331568)
((10, -3, 17, 12, -8, -5, -4, 0), 2, 17.32511151315208)
((-6, -2, 5, 9, -1, -5, -1, 0), 2, 17.348351521157422)
((12, 8, 8, -16, -1, -1, -3, 3), 2, 17.37042151771923)
((10, 5, 7, 3, 0, 2, 1, 4), 2, 17.394510525256454)
((-36, -12, -73, -56, -5, -3, 0, 1), 2, 17.41509919154034)
((79, 11, 3, -20, 4, 5, 4, 15), 2, 17.439670002035545)
((-102, -119, -47, -27, -33, -25, -34, -71), 2, 17.46396712564338)
((84, 85, -29, -8, 21, 19, 22, 48), 2, 17.484986278593865)
((18, -81, -3, -6, -18, -18, -28, -53), 2, 17.50641425133237)
((36, -53, 13, 9, 7, 10, 19, 33), 3, 17.529065832529852)
((-11, -78, -31, -22, -15, -12, 10, 68), 3, 17.55143175303864)
((97, 11, 21, -15, 17, 1, -14, -36), 3, 17.577322532584418)
((-3, -36, -36, -20, 3, -1, -11, -29), 3, 17.59846313409118)
((38, 17, 2, -8, 6, 1, -15, -21), 3, 17.619552419306558)
((92, 13, 45, -42, -4, -7, -2, -3), 1, 17.686951806590038)
((16, 0, 16, 38, -2, 0, 2, -26), 1, 17.706923537015296)
((13, 10, -17, 0, 7, 0, 2, 16), 1, 17.731601541541394)
((12, 6, -1, -1, -4, -5, -21, -62), 1, 17.752936574774395)
((34, 8, 10, 5, 8, 5, 3, 9), 1, 17.77861239607738)
((13, 9, 3, 0, 2, -6, -4, -19), 1, 17.79965606681153)
((-15, -69, 5, 19, 15, -2, 0, 17), 1, 17.818513093351747)
((5, 34, -8, -22, -16, -2, 0, -2), 1, 17.842508021021434)
((-8, -7, 0, -11, 0, -1, -2, -18), 1, 17.864292356894545)
((-26, 15, -11, -7, 6, 1, 1, -3), 1, 17.88446707176127)
((26, 14, -2, 7, 7, 8, 1, -3), 1, 17.90620978442026)
((-7, -6, 7, -16, -5, -3, -1, 8), 1, 17.92698718062023)
((-32, 12, -3, 4, 5, 4, -2, 4), 1, 17.951495841384766)
((-10, 3, 3, -4, 4, 3, 1, 16), 1, 17.97239696686507)
((30, -7, -2, 12, -5, -3, -3, 0), 1, 17.99623167366944)
((-7, -11, 2, -11, -3, -1, -3, -2), 1, 18.016231913145468)
((20, -9, 5, 8, 3, 3, 3, -2), 1, 18.04191172571556)
((6, 24, -3, -19, -9, -4, 1, 3), 1, 18.06229227592884)
((0, 12, 2, 15, 4, 5, 3, -6), 1, 18.081631675608055)
((0, -12, -5, -6, -4, -3, -3, 2), 1, 18.10153498431147)
((3, -3, 0, 4, -5, 0, -1, -3), 1, 18.123111774294987)
((3, -1, -3, 1, 5, 3, -18, -2), 1, 18.143674212252165)
((-3, -2, -8, -1, 3, 0, 32, -2), 1, 18.171577730782193)
((-8, -4, 48, 13, -4, -6, 2, 3), 1, 18.193565621277788)
((-1, 2, -32, 34, 1, -14, 2, -9), 1, 18.212675808188827)
((-2, -8, 101, 79, -23, -20, -86, -18), 1, 18.236681569297804)
((-7, 11, 56, -33, 17, 35, 127, 25), 1, 18.255534034389896)
((28, -30, -15, -48, -26, -20, -16, -31), 1, 18.27921080105301)
((22, -13, -40, -2, -27, -3, -14, 9), 1, 18.303293536599064)
((12, 19, 18, 8, 31, 23, 56, -11), 1, 18.327018198467467)
((-46, 3, 3, -41, 4, -2, 4, -11), 1, 18.350373383037912)
((31, 12, -4, 40, 4, 6, -39, -24), 3, 18.41179214165121)
((20, 24, 46, -64, 11, 6, 15, 12), 3, 18.433144850495687)
((-15, 5, 34, 42, 10, 7, 14, -9), 3, 18.45190494626329)
((-35, -11, 12, 0, -10, -13, 5, -13), 3, 18.482058399079957)
((-13, -28, -15, 19, -14, -12, -19, -14), 3, 18.51005086584838)
((15, 1, 26, -19, -6, -4, -5, 1), 3, 18.530681725527405)
((11, 12, 8, 35, 10, 3, 3, 0), 3, 18.549645375917493)
((-14, 0, -48, 23, -6, 0, 3, 6), 3, 18.57176326768459)
((10, -1, 2, -23, -1, 4, -18, -4), 3, 18.59473186952662)
((0, -1, 52, 0, -4, -4, 2, 15), 3, 18.61360429095425)
((24, 2, -5, -4, 10, 8, -23, -1), 3, 18.633171763039613)
((0, -8, 14, 20, -6, -8, 8, 12), 3, 18.655850142744818)
((-1, 3, -11, -4, 10, 4, -2, 0), 3, 18.68285562617564)
((-12, 3, -1, -14, 6, 7, 11, -1), 3, 18.703577714817122)
((-10, 0, -8, 31, 0, -12, -9, 1), 3, 18.7274164128886)
((3, -3, 4, 14, -14, -4, -9, -2), 3, 18.74839679353004)
((-2, -2, -19, 7, -5, -1, -1, -4), 3, 18.771200613058628)
((0, 0, -12, 16, 8, 5, 1, 0), 3, 18.791562347298395)
((0, 4, 32, 51, 6, -3, -1, 0), 3, 18.813223524072185)
((1, 3, 47, 16, -8, -4, -2, -3), 3, 18.83904189062902)
((-1, 2, 19, -1, 5, 2, 0, 2), 3, 18.858314008948422)
((-7, -22, -99, -57, -25, -7, -6, -9), 3, 18.87748805613318)
((-3, -11, 20, -7, -16, -5, -6, 0), 3, 18.89769070986966)
((-1, -3, -56, -9, 2, 2, 1, -2), 3, 18.919212192294687)
((2, 1, 14, -14, 0, 0, 1, 0), 3, 18.94683974321328)
((3, 63, 0, -16, -3, 1, 0, 1), 3, 18.968319032243166)
((-9, -34, -22, -20, -15, 1, -4, -6), 3, 18.99058060962614)
((-1, -15, 20, 2, -6, -3, 0, -4), 3, 19.01187116873994)
((-100, -39, -91, -32, -13, -7, -13, -74), 3, 19.03359620578745)
((36, 9, 85, 78, 19, 10, -2, -21), 3, 19.053370083400377)
((-20, -10, -84, 6, 11, -4, 86, 47), 3, 19.078699234646024)
((7, -16, -56, -14, -14, -9, 45, 61), 3, 19.100356990333722)
((55, 64, 127, 18, 9, 7, -38, 18), 3, 19.121995359866897)
((-35, -18, -95, -120, -11, 0, -17, -33), 3, 19.145110498229872)
((-44, -26, -36, -35, 0, -6, -20, -18), 3, 19.16641645223109)
((6, -3, 1, 72, 0, -2, -4, 5), 2, 19.218644463057686)
((5, -17, -4, -2, -5, -4, -8, -14), 2, 19.24613517053259)
((11, 7, -28, 29, 0, -1, -8, -6), 2, 19.26734932539033)
((-15, -11, 52, 34, 1, -5, -6, -5), 2, 19.28658267140069)
((-40, -9, -75, 27, 1, -7, -4, -25), 2, 19.308574553163393)
((78, -2, 6, -11, 2, 3, 2, -1), 2, 19.32919857067023)
((-48, -5, 29, -7, -14, -8, -8, -7), 2, 19.35117961899364)
((-9, 4, 3, 1, -3, -1, -2, 4), 2, 19.372716496306083)
((-4, 4, 11, -7, 5, 2, -1, 5), 2, 19.39353608590119)
((-14, -5, 15, -4, -12, -3, -1, -6), 2, 19.418875500405115)
((-65, -2, 21, -5, -5, -8, -7, -43), 2, 19.441405633046323)
((-8, -11, 21, -10, -5, -3, -2, -4), 2, 19.463002949546393)
((5, -13, 3, 5, 4, 1, -2, 0), 2, 19.482149628042414)
((-5, -14, -6, -7, -20, -11, -3, -4), 2, 19.506584735455966)
((3, 2, -20, -1, -1, 0, 0, 5), 2, 19.530253519584864)
((-31, -27, -15, -8, -12, -6, -3, -5), 2, 19.551077670628093)
((18, 21, -10, -15, 19, -4, 0, 4), 2, 19.574479039860783)
((127, 68, 72, 85, 43, 19, 16, 31), 2, 19.5957924062152)
((-79, -52, -9, 24, 18, 5, -9, -31), 2, 19.615646679351293)
((-57, -8, -7, 1, 9, 4, 6, 0), 2, 19.636981712584294)
((-92, -21, 0, -15, -20, -5, -1, -8), 2, 19.660203474797143)
((36, 82, 17, 95, 41, 5, -3, -3), 3, 19.680516743650607)
((2, 25, 17, 106, 41, 14, 5, 2), 3, 19.711704504829147)
((-9, 0, -4, 36, -12, -5, -3, 4), 3, 19.73531741121854)
((11, 29, 5, 4, 7, -6, -3, 0), 1, 19.796489851633197)
((47, 26, 30, 6, -7, 0, -9, -41), 1, 19.817743919162016)
((28, 6, 13, 2, -1, 0, 4, 4), 1, 19.840634976385953)
((12, -42, -2, 19, 3, 2, 0, 9), 1, 19.860413415447002)
((-29, 14, 9, -24, 7, 9, 4, -8), 1, 19.883713292458957)
((33, 11, 2, -12, -1, 0, 0, 0), 1, 19.905811798071532)
((12, 9, -4, -8, -8, 0, 3, -2), 1, 19.92682581939288)
((15, -63, -9, 12, 12, -2, -5, -13), 1, 19.948325634939323)
((19, 31, -8, 2, 9, 2, 1, -4), 1, 19.97075997716995)
((-39, -24, 15, 1, -6, 0, -3, -4), 1, 19.9947497732105)
((15, 0, 13, 11, 0, -2, 0, 2), 1, 20.01576721561794)
((-23, -19, 0, 7, 1, 2, 4, -2), 1, 20.038474104373915)
((-31, -15, -8, -5, 9, 5, 0, -5), 1, 20.05949724859151)
((31, -2, 1, -1, 4, -2, 0, 10), 1, 20.07907042248703)
((-2, 0, -1, -13, -9, -4, 3, 0), 1, 20.10072133600254)
((12, 3, -3, 4, 0, -2, -4, -6), 1, 20.122438390515835)
((-9, 6, 15, -4, -10, -3, -1, -4), 1, 20.148969483341876)
((10, 21, -11, -17, -10, 0, 2, -9), 1, 20.169068934314577)
((-14, -18, -10, -3, -9, -9, -7, -11), 1, 20.18868088051914)
((-4, 14, -10, 4, 1, 6, 7, 5), 1, 20.212503613522184)
((28, -10, -12, -4, 9, 3, 5, 15), 1, 20.23426628251671)
((4, -1, -2, 2, 1, 5, 2, 0), 1, 20.257492035996666)
((-18, 2, -5, 24, 5, 2, 0, 4), 1, 20.277316089538946)
((-10, 2, 0, -6, -1, 0, -3, -2), 1, 20.297546111964166)
((-6, 0, -1, 5, 2, 3, 2, 0), 1, 20.31951176540016)
((15, -3, 4, -8, -1, 2, 1, -1), 1, 20.346480757246002)
((0, -9, -1, -7, -3, -4, -2, -4), 1, 20.366813982435005)
((-4, -3, -11, -10, 0, 1, -1, -1), 1, 20.389627495040852)
((14, -5, 8, -4, -3, 0, -1, -1), 1, 20.41064265672423)
((7, 2, -2, 10, 0, -1, -1, -4), 1, 20.431459965595277)
((-43, -24, -65, -33, -24, -24, -13, 28), 1, 20.450511423861734)
((13, 29, -13, 50, 28, 17, 20, -1), 1, 20.472347076026224)
((23, -2, -20, -16, -5, 7, 61, 76), 1, 20.493433510336526)
((94, 22, 16, -14, 9, 6, -18, 19), 1, 20.52078908491079)
((26, 8, -7, -38, 10, 14, -9, 24), 1, 20.538825620969888)
((-5, -12, 6, -85, -8, 2, 21, 15), 1, 20.559498103863035)
((-13, -37, -3, -54, -5, 3, -3, -21), 3, 20.622201480303954)
((25, 7, 14, 66, 9, -1, -2, 13), 3, 20.642342554490774)
((-22, -20, -10, 37, -29, -10, 0, 17), 3, 20.661419670902923)
((35, 0, -25, -30, -2, 2, 3, 6), 3, 20.692620546244818)
((6, -1, -5, -1, 2, 3, 0, -5), 3, 20.713246844475716)
((-14, 8, 14, -8, 19, 8, 1, 7), 3, 20.74081224566363)
((-8, -9, -13, 53, 4, -2, -1, -7), 3, 20.762597151717756)
((24, 18, -24, -56, 1, 2, 4, 30), 3, 20.78114685069069)
((2, -3, -9, 17, -2, -1, -8, -18), 3, 20.800951518078445)
((-3, 10, 19, 9, 4, 0, -1, 12), 3, 20.8230084004769)
((-19, -21, -16, 18, -13, -6, -5, -3), 3, 20.843484741100756)
((0, -1, -12, 3, -6, -8, -5, 1), 3, 20.865072364523567)
((-9, 1, -10, -15, -4, -5, -4, 26), 3, 20.883911715452303)
((31, -1, -3, -19, 14, 3, 8, 50), 3, 20.903720374107166)
((-15, -5, 10, -6, -28, -5, -5, -10), 3, 20.9228191573979)
((4, 0, -27, -29, -8, -1, -3, 4), 3, 20.944052698410164)
((4, 1, 9, 14, -1, -3, 1, -10), 3, 20.964690970442387)
((1, -2, -2, -5, -4, -6, -5, 0), 3, 20.988533089599954)
((1, -2, -2, 5, 11, 3, 0, 5), 3, 21.01456128277044)
((-4, -3, -7, 27, 7, 0, -2, -9), 3, 21.038120021963373)
((-1, 2, 14, -16, 2, -1, 0, -2), 3, 21.058687021368673)
((-1, 0, 3, 20, 22, 1, -1, 1), 3, 21.07862454093301)
((-1, 1, -10, -17, -3, 1, 1, -8), 3, 21.104836332390445)
((1, -2, 8, 34, 1, -2, 0, 3), 3, 21.127840285455424)
((-21, -24, -50, -66, -23, -14, -12, -1), 3, 21.148467724048352)
((-41, 10, 26, 0, 12, 5, 4, -1), 3, 21.173732444839263)
((-39, -34, -33, -48, -36, -36, -34, -71), 3, 21.195368533648377)
((11, 17, 55, 40, 16, 27, 25, 37), 3, 21.217024008612015)
((32, 27, 59, 94, 45, 37, 48, -30), 3, 21.24429006476686)
((2, 3, 56, 46, 2, -4, -2, 18), 3, 21.264134074644677)
((12, -18, -118, -88, -25, -16, 3, 20), 3, 21.28529292194393)
((10, -2, 78, 31, -10, -11, 13, 73), 3, 21.311548617339547)
((24, 10, -82, -9, 1, 1, -14, -30), 3, 21.33274680712886)
((-57, -24, -119, -47, -21, -13, -13, -23), 2, 21.373510758460487)
((33, 3, -68, -9, 6, 2, -4, -16), 2, 21.39306112511539)
((-22, -7, -32, 10, -5, -2, 4, 9), 2, 21.4168861388425)
((11, -7, -11, 29, -1, -2, 0, 3), 2, 21.437353926751125)
((20, 3, -13, 1, 5, 0, 0, 21), 2, 21.45789469782972)
((13, 14, -27, 14, 10, 3, -1, -16), 2, 21.480233819830783)
((8, -8, -68, -70, -14, -5, -5, 0), 2, 21.499463174574032)
((-12, -14, 44, -12, -22, -10, -10, -7), 2, 21.524222144804313)
((0, -3, 22, 3, -2, 0, 0, -9), 2, 21.54970581510512)
((-17, -4, 100, 18, -7, -3, -4, -15), 2, 21.571472475366754)
((-12, -7, -20, -12, -14, -5, -2, -6), 2, 21.5921820200259)
((7, -2, 38, 21, -8, -4, -2, 13), 2, 21.61305748736051)
((8, -1, 6, -3, 27, 6, 4, 4), 2, 21.633599968982153)
((0, -10, -14, -6, -7, -3, 2, -5), 2, 21.655420796440247)
((-2, 1, 0, 3, 6, 12, 4, 2), 2, 21.679280021028276)
((-1, -2, -20, -29, -9, -9, -4, -4), 2, 21.698326347665592)
((-1, 1, 20, 19, 27, 0, 3, 2), 2, 21.72055428436866)
((-4, -4, -38, -83, -33, -10, -5, -5), 2, 21.74288200274941)
((-2, -2, 23, 26, 9, 4, 3, 0), 2, 21.76583463952301)
((-18, -55, -22, 17, 11, -2, -10, -19), 2, 21.789353466044865)
((37, 37, 0, -9, -8, 2, 8, 17), 2, 21.809652480372943)
((10, 1, -28, -25, -15, -7, -3, -5), 2, 21.829956626330162)
((56, 40, 19, 24, 4, 4, 10, 26), 2, 21.850119937576583)
((-44, -20, 19, -1, -4, -2, -5, -7), 2, 21.87200291476535)
((9, 23, -14, -36, 18, -3, -5, -9), 2, 21.892522018965362)
((-31, -99, -10, -2, -10, -6, -12, -35), 3, 21.923039817450846)
((37, 87, 30, 9, -2, -3, 1, 5), 1, 21.989863321908807)
((-4, 31, 14, 31, 2, 2, 8, 33), 1, 22.01087563268711)
((-28, -14, -23, -11, -1, -6, 2, -1), 1, 22.031223112401495)
((27, -8, 26, 6, -7, 1, 1, 7), 1, 22.052716085775753)
((1, -26, 3, -2, 0, 5, 6, -11), 1, 22.07515270873044)
((23, 5, 5, -24, -1, 4, -2, -7), 1, 22.095050885804717)
((27, 15, 16, -16, -5, -5, -4, 6), 1, 22.11719557607954)
((10, 0, 11, -4, -1, -4, 0, 3), 1, 22.14063343689721)
((-5, 9, 6, 1, 1, 3, 2, 3), 1, 22.164727576063573)
((-8, -48, -30, -2, 0, -1, -2, -4), 1, 22.19128717794038)
((-53, -7, 7, 20, 8, 5, 4, 5), 1, 22.212909582405125)
((1, -41, -70, -11, -13, -5, -7, 1), 1, 22.23302841953235)
((36, 30, 26, 1, -1, 3, 4, 6), 1, 22.252953395114346)
((-14, 2, 8, -7, -7, -5, -2, -2), 1, 22.277209465689072)
((3, 13, 4, 7, 20, 7, 6, -5), 1, 22.296452504776692)
((15, -13, 13, -4, 0, -2, -1, 6), 1, 22.316042213921655)
((-50, -12, -15, 3, 1, 1, 0, -8), 1, 22.342719273087628)
((-6, -4, -1, -9, -5, -4, -2, 1), 1, 22.362640257402518)
((-20, -18, 7, -10, 2, 0, 2, 6), 1, 22.387263524551138)
((10, 23, 5, 1, 6, 4, 4, -1), 1, 22.40695415573582)
((22, 11, 4, 4, 8, 2, 2, -3), 1, 22.428475067979832)
((9, 2, 1, 7, 0, 6, 4, 1), 1, 22.447886310466984)
((-7, -3, -1, 0, 1, -6, -4, -3), 1, 22.468571907523483)
((5, 10, -3, -15, -8, -3, -4, 5), 1, 22.490659579696768)
((-7, 4, 9, 15, 11, 0, -1, 1), 1, 22.5113873701484)
((1, 29, -3, -1, 3, 0, 17, 3), 1, 22.535552211760667)
((2, 5, 19, 18, 11, 3, -6, 6), 1, 22.56792994071828)
((-21, -22, -19, -63, -13, -7, 0, -2), 1, 22.587869170825662)
((42, 36, 46, 28, -8, -3, -2, 16), 1, 22.60968201574954)
((8, -16, 16, 8, 9, 5, -7, 13), 1, 22.628176977345)
((-54, 51, 82, 43, 32, 19, 11, -13), 1, 22.64982561013645)
((-43, -10, 19, 0, 7, 1, 25, 9), 1, 22.671381873603412)
((-12, 12, 14, -8, 15, 13, -10, -37), 1, 22.69093680170644)
((-17, -22, 24, 14, -13, -9, 7, -23), 3, 22.75482615465932)
((-7, -8, -9, 9, -6, -8, 8, -8), 3, 22.77870647594492)
((-3, -6, 15, 34, 7, 4, -8, -7), 3, 22.8006196727275)
((12, -4, -4, 26, 9, -1, -15, -13), 3, 22.82320169184111)
((-9, -9, -7, -1, 1, -3, -10, -2), 3, 22.849833136525852)
((8, -2, -9, 37, 2, -3, -9, -2), 3, 22.87081522771034)
((-20, -73, 41, 79, -12, -7, -4, 4), 3, 22.89381062806009)
((4, -5, 3, 19, -6, -5, -6, -11), 3, 22.91451561127111)
((3, 14, 36, -19, 5, 3, 8, -3), 3, 22.935338051771296)
((15, 7, -51, 7, 0, 1, 1, -3), 3, 22.95483881267786)
((3, 4, 14, 11, 5, 0, 1, 2), 3, 22.975805508974933)
((-5, -3, 6, -7, 2, 0, -1, -6), 3, 22.995507543779922)
((4, 0, 25, -19, -10, 0, -2, -3), 3, 23.02093875742732)
((6, 7, 7, -16, 2, -8, -7, 4), 3, 23.042979674757344)
((2, 7, 8, 5, 4, 12, 4, 1), 3, 23.061429021871575)
((-3, -7, 0, 29, 0, 1, -1, -6), 3, 23.085495792349196)
((-2, -3, -11, -10, -16, -9, -6, -3), 3, 23.108421060434058)
((0, -1, -2, -2, 4, -4, 0, 0), 3, 23.126740976457796)
((-4, -4, 8, 3, -11, -7, -5, -1), 3, 23.1559051652128)
((8, 17, 18, 23, 39, 16, 8, 2), 3, 23.17605878338196)
((-3, -1, 1, -20, -29, -10, -7, -4), 3, 23.197779829162364)
((-1, -2, 5, 15, 5, 1, 1, 0), 3, 23.222197831145454)
((-4, -8, -22, -39, -1, 1, -4, -1), 3, 23.243289397084894)
((5, 9, 36, 25, 6, 6, 6, 4), 3, 23.26382275581029)
((0, 0, 28, 7, 3, -3, 3, 1), 3, 23.290573368327244)
((-10, -4, -17, -4, -2, -4, -60, -21), 3, 23.321148184914264)
((13, 0, -8, 6, 2, 18, 33, 17), 3, 23.34322844473435)
((19, 34, 37, 35, 12, 4, 4, 3), 3, 23.36301885759672)
((46, 20, -63, -9, -1, 14, 19, 13), 3, 23.385129907191637)
((-65, -27, 3, -32, -2, -10, -15, -10), 3, 23.407306527603318)
((71, 10, 65, 3, -29, -3, 13, 10), 3, 23.425499863441647)
((-32, -10, -56, 8, 0, -4, 2, -13), 1, 23.53215279254705)
((-11, -4, -40, -23, -12, -18, -4, -15), 1, 23.553092690336403)
((-2, -15, -29, -37, 4, 3, -1, -11), 1, 23.576930818226863)
((5, -4, 0, -5, -7, 2, -12, -10), 1, 23.59718820934082)
((3, 23, 8, -3, -11, -10, -3, -4), 1, 23.62034212001284)
((-20, -24, -8, -16, 0, -3, 8, -11), 1, 23.640511703250432)
((12, 17, -3, -13, 0, 2, 1, 2), 1, 23.65933280838668)
((-2, -7, -15, -8, -4, -3, 0, -5), 1, 23.680509901478423)
((-1, 1, 3, 2, -3, -3, -4, -4), 1, 23.701393351347253)
((11, -8, 10, -10, -2, -4, -1, 0), 1, 23.71988375149459)
((-8, 5, 4, -18, 7, 2, 9, 27), 1, 23.747361344806137)
((5, -12, -5, -3, -3, -5, 2, 0), 1, 23.776320838576623)
((1, 0, -4, 18, -12, -19, -9, -14), 1, 23.798422195094275)
((7, 7, 2, 16, -3, -7, 3, -4), 1, 23.819324460936613)
((0, 5, -1, -5, -9, -1, -2, 6), 1, 23.840900680739114)
((7, -1, -1, 16, 0, -1, 5, 4), 1, 23.86180921857262)
((-1, -2, 0, 6, 2, -1, -6, 7), 1, 23.881200504724234)
((41, 15, 0, -38, -15, 0, -3, 3), 1, 23.90208680549814)
((4, 1, -1, -16, 1, 5, 3, 1), 1, 23.922472487340556)
((-7, 4, 3, 0, -3, 3, 0, 0), 1, 23.942492112971106)
((-13, -7, -6, -19, -17, -7, -5, -6), 1, 23.966792657665028)
((-4, 3, 0, -17, -15, -1, -4, -2), 1, 23.99247931240731)
((1, -18, -10, 21, 9, 5, 2, 0), 1, 24.015056770072796)
((-1, 5, 5, -15, -1, -3, -1, 1), 1, 24.037795018784614)
((-4, 9, 0, -33, 2, 3, 2, 2), 1, 24.058106006914016)
((-4, -6, 11, 19, 3, 2, 0, -4), 1, 24.078147869604162)
((-3, 1, -3, 12, -1, 3, -1, 0), 1, 24.09985751176426)
((-6, -17, -15, 32, -26, -5, -1, -3), 1, 24.126479263371742)
((1, 3, -11, 11, 4, -5, -3, -1), 1, 24.145680109064223)
((-5, -16, -17, 7, -24, -7, 6, 8), 1, 24.167175363162542)
((63, -3, -42, -1, -4, 12, 109, 96), 1, 24.18922711393186)
((-9, 14, 25, 61, 10, 25, 43, -16), 1, 24.20997771162411)
((-3, 16, 60, -34, 4, 10, 25, 8), 1, 24.229081056362965)
((-120, -49, 89, 88, -38, -27, -55, -60), 1, 24.249422264086178)
((13, 29, -47, -36, 13, 21, 52, 5), 1, 24.269474960215618)
((10, 0, 15, -24, 6, 4, -89, 24), 1, 24.287474434508724)
((22, 94, -78, -24, 15, 11, 21, 5), 3, 24.316288532120293)
((-3, 0, 21, -17, -9, -1, 1, 1), 3, 24.337351589008964)
((-6, -10, 45, -48, 5, 6, 10, -1), 3, 24.359864046038695)
((5, 25, -23, 23, -2, -2, 15, 13), 3, 24.383564190123437)
((25, -10, -1, 16, 4, 7, 24, 0), 3, 24.406176999011876)
((3, -2, -37, -75, 12, 3, 3, 10), 3, 24.426531320898444)
((12, 7, 7, -13, 4, 5, 7, 8), 3, 24.45118138655479)
((-6, -5, 14, 1, -9, -1, 3, 1), 3, 24.472267250684073)
((3, 3, 22, -3, 0, -1, 1, -2), 3, 24.491957881868757)
((-8, -15, -9, 8, -17, -10, -8, -4), 3, 24.512429090863478)
((1, 2, -2, 23, 14, 6, 2, -8), 3, 24.532087221730283)
((-4, -5, -21, -24, -8, -7, -5, 1), 3, 24.562050804268832)
((-1, -2, -13, 13, -6, -16, -5, 1), 3, 24.58242850357703)
((-1, -1, -8, -5, 5, 15, 12, 0), 3, 24.603044538549653)
((0, 0, -14, -7, -1, -11, -3, 0), 3, 24.62312118228174)
((-1, 4, 1, 43, 23, 11, 2, 3), 3, 24.643213220901238)
((0, 1, -13, -23, -1, 0, 0, -2), 3, 24.659958296960536)
((7, 3, 0, 4, 1, 8, 4, 3), 3, 24.680583454829403)
((-25, -21, -20, -55, -17, -11, -14, -10), 3, 24.702583889307338)
((10, 1, 28, -18, -8, 0, 0, 1), 3, 24.72398677408117)
((-33, 2, -5, 18, -2, -4, 0, 3), 3, 24.745739179817416)
((-10, -4, 10, 19, 5, 6, 3, -2), 3, 24.767420312926745)
((34, 5, 16, 4, -2, 2, 2, 4), 3, 24.788344245647664)
((26, 25, 33, 34, 27, 15, 10, 7), 3, 24.812289567569017)
((6, -1, -30, -20, 5, 3, -1, -1), 3, 24.837558279627032)
((-52, -19, 55, 29, -19, -12, -8, -67), 1, 24.92462549085458)
((-57, -54, -118, -109, -52, -22, -72, 64), 1, 24.945953111734383)
((54, 31, 15, 10, 26, 23, 24, -4), 1, 24.967765386477247)
((-14, 34, 87, -15, 40, 64, 127, 68), 1, 24.991682769528843)
((16, -39, -52, 39, 28, 0, 66, 9), 1, 25.016290071609035)
((38, 37, -78, 24, 19, 33, 79, 28), 1, 25.037241943199707)
((15, 61, -12, 7, 15, 7, -13, 24), 3, 25.079182748147055)
((-11, -14, 49, -26, -10, -7, 17, -12), 2, 25.09861565751279)
((32, 19, -80, 38, 1, -2, -13, -2), 2, 25.121458819531437)
((-12, -29, -3, 8, -12, -11, -18, -5), 2, 25.14764837392927)
((9, 8, 40, 14, 0, 1, -5, 11), 2, 25.17053829079118)
((46, 29, 28, 13, 5, 6, 4, 1), 2, 25.191321958982318)
((13, 12, -23, -1, 3, 4, 4, -4), 2, 25.214425123543972)
((-15, -27, -44, -69, 4, 2, 3, 41), 2, 25.237422234436767)
((1, -17, -6, 23, 2, 2, 3, -1), 2, 25.257643704146755)
((7, 4, -4, 13, -5, -3, -2, 54), 2, 25.28441655372331)
((2, 2, -9, 26, -2, -3, -2, -5), 2, 25.305318249384634)
((-8, 7, -3, 13, 8, 7, 5, 10), 2, 25.32555055253391)
((7, 41, -17, -21, -5, -4, -3, 0), 2, 25.349741622472887)
((47, -4, 50, 0, -3, -3, 1, 17), 2, 25.372002629674842)
((-16, -2, 29, 5, 3, -4, -5, -8), 2, 25.395471280267348)
((-11, -24, 11, 11, -1, 3, 1, 5), 2, 25.41851172491731)
((6, 7, 1, 8, 0, 0, 2, 0), 2, 25.439533158591857)
((-3, -18, -1, -48, -11, -9, -7, -12), 2, 25.459618355039176)
((-12, -1, 12, 79, 45, 17, 20, 10), 2, 25.481561201234555)
((19, 8, 17, -46, -19, -6, -2, -3), 2, 25.500142260163333)
((-5, -5, -58, -58, -23, -9, -10, -13), 2, 25.52537676136043)
((-95, -98, -37, 100, 22, -7, -16, -61), 2, 25.547958780474037)
((-69, 8, -20, 93, 27, 20, 17, 11), 2, 25.566696069001026)
((-12, -58, -33, -128, -12, -10, -7, -20), 2, 25.586160338322607)
((-23, 32, 28, 15, 5, 16, 24, 48), 2, 25.606294570337244)
((93, -78, -14, -24, -20, -16, -25, -53), 2, 25.62969536938892)
((-4, -26, -14, 8, 1, 2, 0, -3), 3, 25.655253733402745)
((-30, -24, 53, -4, 5, -3, -5, -14), 3, 25.67569700352771)
((-30, -64, -31, -7, 1, -4, -4, -5), 3, 25.69759822650897)
((-19, -33, -4, 2, -30, -9, -6, 2), 1, 25.759620236636525)
((-2, -10, 22, -14, -3, -2, -5, -18), 1, 25.783002789895708)
((8, -5, -16, 37, -22, -1, 1, 6), 1, 25.80309482851521)
((41, 34, -4, 10, 0, 1, 6, 30), 1, 25.8245444681323)
((-95, -124, 48, -2, -1, -8, -16, -69), 1, 25.85711320773006)
((16, -18, 20, -10, -29, -24, -14, 81), 1, 25.876734847011882)
((25, 23, 2, -2, 6, 0, 0, 19), 1, 25.89673622684994)
((-39, 24, 22, 13, 47, 18, -16, -26), 1, 25.917661870113903)
((11, 57, 16, -20, -6, 2, 9, -5), 1, 25.936959646578998)
((3, -3, -18, 5, 8, 2, 5, 6), 1, 25.95596492018321)
((-6, -14, -57, -12, -7, -7, 0, -2), 1, 25.980629240364937)
((32, 29, 10, 5, -1, -3, -5, -8), 1, 26.000459565898385)
((15, -7, 24, 7, 9, 6, 7, 10), 1, 26.02139034079149)
((-52, -15, -5, -1, -5, -3, 0, -8), 1, 26.047665992522646)
((41, 36, -12, -12, -13, -9, -4, 1), 1, 26.069028394444384)
((-21, -7, -1, 8, 1, -5, -4, -2), 1, 26.08984855422051)
((-12, -10, -6, -15, -17, -5, -1, 2), 1, 26.113726594782044)
((11, 17, 8, -6, 5, 2, 1, 0), 1, 26.13496868850954)
((7, -8, 1, -1, -15, 3, 4, 3), 1, 26.154672433857577)
((8, 3, 17, 2, 12, 7, 3, -6), 1, 26.181818181818183)
((-26, 7, 6, 0, 14, 8, 0, 6), 1, 26.209787271164977)
((-1, 3, 0, -12, -17, -3, -1, -1), 1, 26.231208401731298)
((-7, 3, -5, 34, 23, 7, -3, -6), 1, 26.253162651546987)
((6, -1, -4, -32, -27, -23, -10, 0), 1, 26.27487514461216)
((-9, 4, 2, -28, -1, 1, 0, 2), 1, 26.297412119425555)
((-2, -4, -2, 11, 17, 2, 1, 1), 1, 26.31735077935192)
((-4, -1, -2, -30, -14, -3, 0, -1), 1, 26.345382588610406)
((7, 94, 16, 1, -3, 2, -3, -2), 1, 26.372349299732186)
((-7, 61, 16, 8, -11, -8, -3, -5), 1, 26.392769192435523)
((1, -26, -5, 4, 7, 4, 2, 3), 1, 26.414174928114427)
((8, -22, 27, 0, -11, -7, -8, 6), 1, 26.434305168861957)
((-16, -3, 11, -2, -6, -2, 1, 1), 1, 26.458511633688346)
((45, -4, 2, -52, 7, -2, 7, 96), 1, 26.482430727282992)
((-46, -56, -55, -7, 23, 10, 3, -11), 1, 26.502221140145362)
((-22, 3, 2, -6, -11, -7, -9, 8), 3, 26.61205339859245)
((-6, 0, -15, 10, -10, -4, -5, -39), 3, 26.631728064708703)
((0, 15, 11, 6, 23, 10, 7, 33), 3, 26.65250489072766)
((-11, 17, 1, -6, 9, 6, 2, -9), 3, 26.674983136896472)
((-3, -21, 16, -10, 6, 2, -5, -9), 3, 26.696182467047812)
((19, 9, -23, 4, 12, 7, 8, 23), 3, 26.715330285905868)
((-3, 13, -1, 22, 6, 3, 0, -14), 3, 26.734968460437134)
((4, 4, -20, -49, 6, 5, 1, -7), 3, 26.755882700080793)
((-26, 3, 27, 26, -2, 1, 0, 4), 3, 26.781377774001914)
((7, 1, 7, 34, 2, 1, -1, -1), 3, 26.81299203057995)
((4, 7, 16, -18, -2, -3, -2, -3), 3, 26.833105165897017)
((4, 7, 16, -18, -2, -3, -2, -3), 3, 26.85395611544797)
((13, 1, -8, -2, 0, 4, 1, 3), 3, 26.88307525990276)
((5, -6, -8, 2, -17, -10, -13, -8), 3, 26.90363883822197)
((-1, 0, 3, 4, -11, -4, -6, 1), 3, 26.924116319207858)
((-3, -4, -1, 3, -1, 1, -3, -4), 3, 26.94495301423343)
((-5, -3, 24, -5, -6, -6, -5, -10), 3, 26.965686506495217)
((0, -1, -11, -16, 4, 0, -1, -2), 3, 26.988933356672742)
((6, 3, 0, -8, 1, 1, 3, 7), 3, 27.013290919468204)
((2, -4, -38, -20, 19, -1, 6, 1), 3, 27.03933735843118)
((0, -6, -12, -51, -13, 0, -1, -2), 3, 27.05817899008398)
((-6, -1, 7, 8, 1, 3, 0, -3), 3, 27.081487989992183)
((-2, -1, 28, -2, 2, 4, 4, 2), 3, 27.101448316797132)
((48, -63, 39, 16, 1, -3, -4, 18), 3, 27.12446253312039)
((-15, -12, 2, -26, -20, -6, -5, -11), 3, 27.144079040773075)
((-27, 14, 9, -10, -4, -4, -5, 4), 3, 27.16376796141471)
((50, 19, -50, 16, -15, -2, 0, -25), 3, 27.18332859132789)
((27, 26, -17, 26, 18, 12, 7, 11), 3, 27.211606148603998)
((-7, 45, 44, 78, 18, 32, -3, 31), 3, 27.27738964288993)
((-4, -6, -10, 10, 0, -1, 18, 10), 2, 27.321594636649298)
((-7, 17, 67, 39, 19, 14, -19, -37), 2, 27.34047275988708)
((-20, 22, 71, 58, 10, 8, 1, 18), 2, 27.362548458259045)
((-19, 23, 16, -72, -8, 0, -10, -18), 2, 27.388814416912936)
((40, 2, 12, -2, 1, -2, -17, -14), 2, 27.410390636715437)
((18, -53, -28, 9, -6, -7, 0, 0), 2, 27.43083447702142)
((29, -10, -9, -17, 1, -1, -5, 16), 2, 27.45211078160984)
((13, 10, 0, 3, 7, 7, 1, -24), 2, 27.4719046155583)
((-5, -27, 0, 4, 7, 4, 0, -5), 2, 27.492911224526452)
((-46, -4, 2, 4, -3, -6, -14, -49), 2, 27.512547688514672)
((19, -1, 35, 62, -11, -6, 0, 17), 2, 27.53411706614499)
((-33, -37, -16, 3, 0, -1, 0, 7), 2, 27.555821576675946)
((22, -19, 7, -38, 1, 1, 3, 0), 2, 27.577909819030246)
((-19, 23, -10, -58, -8, -7, -6, 5), 2, 27.59809479715525)
((1, -9, 5, -13, -8, -3, -1, -4), 2, 27.61935912794235)
((-7, -2, 23, 37, -13, -7, -4, -5), 2, 27.640686748822148)
((24, -6, -15, 37, 3, 3, 0, 2), 2, 27.664659439432235)
((-12, 9, -1, 18, 2, 1, 0, -3), 2, 27.686308642404704)
((0, -8, 5, -22, -6, -4, 1, 1), 2, 27.70899158355803)
((5, 4, -3, -8, 5, 1, -1, 2), 2, 27.729714812561543)
((-3, -4, -58, -21, -18, -7, -2, 2), 2, 27.752350998871613)
((-2, -3, 7, 19, 19, 5, -1, 2), 2, 27.771827241994515)
((-2, 5, 27, -3, 0, 1, 2, 2), 2, 27.794871677911587)
((31, 5, 8, -7, 4, 7, 1, -1), 2, 27.81912432740022)
((-11, -8, 19, 7, 31, -1, -13, -30), 2, 27.83848425359599)
((-5, -8, -9, -15, -14, -9, -5, 1), 2, 27.857328165972852)
((33, 20, 2, -5, 12, 3, 1, 3), 2, 27.880496901351272)
((-82, -62, 30, 14, 2, 3, 2, -2), 2, 27.90704909087488)
((107, 56, -3, 11, -11, -3, 0, 27), 2, 27.927550519463413)
((-48, 61, 18, 5, -12, -8, -11, -63), 3, 27.993019273828864)
((-21, 65, 42, 5, 17, 17, 19, 27), 3, 28.013296621278357)
((-118, -50, -16, -28, -14, -20, -26, -35), 1, 28.08253085106929)
((103, 58, -5, 7, 25, 16, 32, 44), 1, 28.10164559942845)
((-42, -39, -9, -14, -14, -7, -10, -19), 1, 28.126177637614614)
((9, 17, 8, 23, -3, 1, 4, 16), 1, 28.14824649381439)
((33, 89, -8, 4, 8, 3, -1, 17), 1, 28.16950911405844)
((42, 16, -9, 3, 11, -6, -16, -32), 1, 28.18854004580834)
((-38, 28, 53, 4, 3, 0, 1, 6), 1, 28.21017955570355)
((10, -18, -32, -2, -4, -5, -3, 2), 1, 28.231928540353707)
((-97, 31, 15, 1, 1, -4, 4, 4), 1, 28.253040632809697)
((75, -17, -1, -1, 0, 0, 0, -5), 1, 28.278514039852233)
((10, -23, -5, -20, -9, 1, 1, 6), 1, 28.31908983144879)
((16, 10, 3, -13, -9, -3, 0, 0), 1, 28.342146811348197)
((-20, -9, -3, -8, -1, 0, -2, -8), 1, 28.36268701224578)
((49, -27, -24, 11, -5, -2, -2, 9), 1, 28.382406722662243)
((-14, -2, 3, 6, 7, 3, 1, -5), 1, 28.40870803253909)
((-41, -42, -7, 10, -4, 3, 3, 13), 1, 28.43464328620407)
((-8, -4, 2, -10, -19, -4, 7, 11), 1, 28.46100674581159)
((-13, 23, -2, 8, 5, 3, -1, 4), 1, 28.490344839776284)
((-25, 13, -3, -12, -12, -4, -1, 0), 1, 28.515363242368554)
((-11, -8, -4, -17, -15, -9, -13, -9), 1, 28.539723656069093)
((-17, -3, 1, -6, -3, -9, -5, -5), 1, 28.565391494837865)
((-1, 2, -1, -2, -6, -4, 1, 4), 1, 28.587711230684405)
((-9, 0, 4, 3, 1, 2, -1, -7), 1, 28.621601649875785)
((2, 1, 3, 2, 2, -1, 1, 0), 1, 28.65375757841842)
((-2, -21, 0, -8, -2, -1, -6, -3), 1, 28.678302730767935)
((-4, 78, -54, -6, 7, 7, 6, 2), 1, 28.699716448981057)
((-5, -51, 35, 7, -2, -1, 0, -2), 1, 28.721265870275836)
((-83, -17, 60, 34, -17, -5, 4, -6), 1, 28.750996818960115)
((-76, -77, 4, -52, -95, -51, -49, -37), 1, 28.776718254744335)
((62, 19, 27, 32, 25, 10, 9, 12), 1, 28.804150803755668)
((29, -11, -60, -49, -28, -3, 16, 67), 1, 28.828421128855776)
((-4, 4, 5, 29, 9, -1, 4, 20), 3, 28.90448783775385)
((-5, -14, 19, -39, 6, 7, 7, 6), 3, 28.93701096287038)
((21, 5, 40, 30, 5, 8, 7, 22), 3, 28.96162738784682)
((12, -25, 5, 2, -1, 3, 13, 25), 3, 28.98827308705695)
((11, -44, 32, 16, -15, -8, -5, -3), 3, 29.012715606823697)
((-1, -2, 24, -28, 22, 4, -1, 4), 3, 29.039741046590063)
((-12, -23, -7, -9, -13, 1, 6, 8), 3, 29.066048628458077)
((79, 18, 7, 8, -2, 0, 1, 25), 3, 29.090289874326402)
((-15, -3, 18, 37, 1, 1, -4, -6), 3, 29.133589990814382)
((-10, 4, 17, 33, 0, -2, -3, -14), 3, 29.160410165415215)
((-6, -6, -6, -15, -2, 3, 1, -4), 3, 29.18455448051093)
((-2, -5, -4, -12, -1, -10, -5, -3), 3, 29.207146192701796)
((-46, 2, -5, -5, -1, -5, -6, -12), 3, 29.232850523055554)
((14, 5, -5, 0, 10, 25, 14, 2), 3, 29.257661379758233)
((4, 5, 7, 18, 32, 10, 5, 11), 3, 29.28311426028421)
((-1, 5, 10, 5, 7, 6, -1, -3), 3, 29.30514377399393)
((-3, 1, -7, -3, -6, 6, -1, 1), 3, 29.33742913362705)
((-3, -4, -5, 38, 24, 9, 6, 3), 3, 29.36304850700952)
((3, 1, -5, 24, 12, 4, -2, 1), 3, 29.388130769875513)
((-3, -4, 8, 2, -9, 2, 2, -2), 3, 29.410502962375464)
((-1, -5, -57, 52, -7, -4, 2, -2), 3, 29.43575456900302)
((0, -7, -31, -4, -7, -1, -4, -2), 3, 29.465447885740286)
((4, -10, 58, 50, 13, 3, 0, 1), 3, 29.486613575211724)
((51, -40, -5, -30, -10, -7, -6, 7), 3, 29.503114043615426)
((-6, -3, -108, -51, 0, 11, 27, 16), 3, 29.527479018764087)
((-10, -39, 18, -58, -54, -68, -53, -4), 3, 29.552310401983316)
((26, -9, -62, -89, -34, -35, -32, -24), 3, 29.57733849765285)
((73, -30, 2, -50, -43, -30, -67, 91), 3, 29.602196109198786)
((-14, -10, 27, 1, -18, -28, -89, -63), 3, 29.630793538024516)
((-18, 9, 67, 71, 14, 17, 30, -26), 3, 29.65417095965456)
((-50, -98, 96, -79, -42, -18, -2, -30), 2, 29.676872716781396)
((41, -48, 16, 10, 4, -6, -28, -71), 2, 29.7010575147292)
((29, 17, -20, -18, -17, -11, -16, -20), 2, 29.730143018504084)
((-20, -8, 31, 26, 19, 14, 21, 27), 2, 29.753686932990618)
((-4, -25, -77, -49, -9, -1, 5, -4), 2, 29.780077761286876)
((-3, 18, -3, 26, 0, -1, -7, -5), 2, 29.811958292399087)
((25, 1, 11, -3, 3, -2, 9, 6), 2, 29.83636032931375)
((-7, -49, 38, -24, -4, -2, -7, -8), 2, 29.862937036621016)
((-86, 7, -7, -10, 2, -1, -10, 5), 2, 29.889115187398545)
((8, 54, -14, -46, 0, 6, 12, -9), 2, 29.909070382574356)
((15, -5, -9, -26, -1, -4, -2, 11), 2, 29.93403518815118)
((-43, -42, 66, -10, 3, 2, 0, 35), 2, 29.96912811910397)
((2, -29, 4, -17, -8, -6, -4, 23), 2, 29.99664904617269)
((30, 12, 26, 0, -3, 0, 1, -1), 2, 30.021780344606)
((-14, -15, 35, -22, -2, -2, -2, 8), 2, 30.04751147346748)
((-48, -2, -28, -17, 0, 1, -1, -1), 2, 30.07164438494289)
((6, -24, 11, 9, -3, -3, -3, 9), 2, 30.103064209794685)
((-9, -43, -10, 49, 25, -1, -2, -2), 2, 30.133525560359647)
((1, -13, 14, -11, -8, 0, -2, 5), 2, 30.158647735896714)
((1, 6, -10, 9, 6, 3, 3, -4), 2, 30.1847945267184)
((-1, 3, 1, -10, -5, -6, -4, -1), 2, 30.20868796216735)
((-2, 0, -5, -7, -2, -1, 0, -2), 2, 30.23301986681712)
((1, -11, -8, 9, -1, -3, -2, -4), 2, 30.261291152102057)
((0, -31, -29, -5, -2, 0, 0, -1), 2, 30.28244372741014)
((-1, -63, 24, 3, 3, 1, -2, -1), 2, 30.316260023069525)
((1, 1, 15, 7, -3, -1, -1, 0), 2, 30.340050255754694)
((-3, -3, -35, -10, -2, -1, 0, 2), 2, 30.368732641551713)
((3, 15, 3, 2, 6, 0, -1, 0), 2, 30.394813291375613)
((1, 1, 4, -1, 9, 2, -1, 0), 2, 30.41920335448895)
