((5, 53, 12, 2, -6, 7, -1, 7), 0, 5.701810153669486e-07)
((5, 53, 12, 2, -6, 7, -1, 7), 0, 0.0020190109754143646)
((3, -5, 2, -1, -27, -7, -11, 12), 0, 0.0031531010149792255)
((3, -5, 2, -1, -27, -7, -11, 12), 0, 0.004784388899944065)
((3, -5, 2, -1, -27, -7, -11, 12), 0, 0.00573830173865297)
((3, -5, 2, -1, -27, -7, -11, 12), 0, 0.007091341288118739)
((3, -5, 2, -1, -27, -7, -11, 12), 0, 0.008850349720525775)
((3, -5, 2, -1, -27, -7, -11, 12), 0, 0.009999264466490177)
((3, -5, 2, -1, -27, -7, -11, 12), 0, 0.011127082514886)
((3, -5, 2, -1, -27, -7, -11, 12), 0, 0.012093539335932978)
((3, -5, 2, -1, -27, -7, -11, 12), 0, 0.013687195273883599)
((3, -5, 2, -1, -27, -7, -11, 12), 0, 0.01500431341938125)
((3, -5, 2, -1, -27, -7, -11, 12), 0, 0.0161161663993468)
((-7, -6, -5, -10, -17, -32, -19, -15), 0, 0.018004605922242133)
((-7, -6, -5, -10, -17, -32, -19, -15), 0, 0.018841631652800814)
((-7, -6, -5, -10, -17, -32, -19, -15), 0, 0.019621069100807433)
((-7, -6, -5, -10, -17, -32, -19, -15), 0, 0.020505990036656936)
((-7, -6, -5, -10, -17, -32, -19, -15), 0, 0.02154657038970162)
((-7, -6, -5, -10, -17, -32, -19, -15), 0, 0.02270631857495799)
((-7, -6, -5, -10, -17, -32, -19, -15), 0, 0.023776548340801753)
((-7, -6, -5, -10, -17, -32, -19, -15), 0, 0.024644934027205617)
((-7, -6, -5, -10, -17, -32, -19, -15), 0, 0.02570547071578814)
((-7, -6, -5, -10, -17, -32, -19, -15), 0, 0.0277107973468337)
((-7, -6, -5, -10, -17, -32, -19, -15), 0, 0.0310834180527292)
((-7, -6, -5, -10, -17, -32, -19, -15), 0, 0.03245185248960988)
((2, -2, 0, 3, 67, 13, 6, 0), 0, 0.03338181772567337)
((2, -2, 0, 3, 67, 13, 6, 0), 0, 0.034294107350260485)
((2, -2, 0, 3, 67, 13, 6, 0), 0, 0.03516762466580265)
((2, -2, 0, 3, 67, 13, 6, 0), 0, 0.036039431438298714)
((2, -2, 0, 3, 67, 13, 6, 0), 0, 0.037135319349833995)
((2, -2, 0, 3, 67, 13, 6, 0), 0, 0.038480946546099994)
((1, -1, -1, 2, -12, 3, 10, -21), 0, 0.039453675358316)
((-1, 3, -1, -4, -14, -3, -12, 10), 0, 0.040296402899028354)
((-1, 3, -1, -4, -14, -3, -12, 10), 0, 0.041122025009279695)
((-1, 3, -1, -4, -14, -3, -12, 10), 0, 0.0419983932298987)
((-1, 3, -1, -4, -14, -3, -12, 10), 0, 0.04300818380811356)
((-1, 3, -1, -4, -14, -3, -12, 10), 0, 0.04406187832451168)
((-1, 3, -1, -4, -14, -3, -12, 10), 0, 0.047374630023793655)
((-1, 3, -1, -4, -14, -3, -12, 10), 0, 0.04845341250486792)
((-1, 3, -1, -4, -14, -3, -12, 10), 0, 0.04932236837228715)
((-1, 3, -1, -4, -14, -3, -12, 10), 0, 0.05006132296820272)
((-1, 3, -1, -4, -14, -3, -12, 10), 0, 0.051014095444880884)
((-1, 3, -1, -4, -14, -3, -12, 10), 0, 0.05190756909596089)
((-1, 3, -1, -4, -14, -3, -12, 10), 0, 0.05314486189930717)
((1, -3, 4, 11, -56, -5, 4, 6), 0, 0.0540742569543553)
((1, -3, 4, 11, -56, -5, 4, 6), 0, 0.055046415585555945)
((1, -3, 4, 11, -56, -5, 4, 6), 0, 0.056377218075422404)
((1, -3, 4, 11, -56, -5, 4, 6), 0, 0.05709108470666183)
((1, -3, 4, 11, -56, -5, 4, 6), 0, 0.05787337305974528)
((1, -3, 4, 11, -56, -5, 4, 6), 0, 0.058597502949261304)
((1, -3, 4, 11, -56, -5, 4, 6), 0, 0.05954172271070897)
((1, -3, 4, 11, -56, -5, 4, 6), 0, 0.06120266000847289)
((-1, -9, -6, -7, 62, -6, -21, -15), 0, 0.0634314975975423)
((-3, 0, -9, -6, -66, -10, 3, 14), 0, 0.06592261845368048)
((-3, 0, -9, -6, -66, -10, 3, 14), 0, 0.0667539423740855)
((-3, 0, -9, -6, -66, -10, 3, 14), 0, 0.0679079887491882)
((-3, 0, -9, -6, -66, -10, 3, 14), 0, 0.06906545621038311)
((-3, 0, -9, -6, -66, -10, 3, 14), 0, 0.06987967470032712)
((-3, 0, -9, -6, -66, -10, 3, 14), 0, 0.07072582332713166)
((-3, 0, -9, -6, -66, -10, 3, 14), 0, 0.07170254340645525)
((-3, 0, -9, -6, -66, -10, 3, 14), 0, 0.07279501023189833)
((-3, 0, -9, -6, -66, -10, 3, 14), 0, 0.07454774667313632)
((-3, 0, -9, -6, -66, -10, 3, 14), 0, 0.0757696445890677)
((11, 11, 8, -12, -64, 5, 17, 7), 0, 0.076996103953122)
((11, 11, 8, -12, -64, 5, 17, 7), 0, 0.0780674740809965)
((11, 11, 8, -12, -64, 5, 17, 7), 0, 0.07983161414254183)
((11, 11, 8, -12, -64, 5, 17, 7), 0, 0.08149996379350552)
((11, 11, 8, -12, -64, 5, 17, 7), 0, 0.08252400889710457)
((11, 11, 8, -12, -64, 5, 17, 7), 0, 0.08411823501607055)
((11, 11, 8, -12, -64, 5, 17, 7), 0, 0.08499517341770492)
((11, 11, 8, -12, -64, 5, 17, 7), 0, 0.08599299019459708)
((11, 11, 8, -12, -64, 5, 17, 7), 0, 0.08688076203552342)
((11, 11, 8, -12, -64, 5, 17, 7), 0, 0.08779647274620274)
((11, 11, 8, -12, -64, 5, 17, 7), 0, 0.08869279730235959)
((11, 11, 8, -12, -64, 5, 17, 7), 0, 0.09004469648979462)
((11, 11, 8, -12, -64, 5, 17, 7), 0, 0.09112005788477669)
((-2, -5, -4, 0, -7, -2, 5, 2), 0, 0.09213041864400691)
((-2, -5, -4, 0, -7, -2, 5, 2), 0, 0.09347490547824218)
((-2, -5, -4, 0, -7, -2, 5, 2), 0, 0.09427543962381738)
((-2, -5, -4, 0, -7, -2, 5, 2), 0, 0.09568207618872764)
((-2, -5, -4, 0, -7, -2, 5, 2), 0, 0.09796223006918006)
((-2, -5, -4, 0, -7, -2, 5, 2), 0, 0.10094712768462603)
((-5, 3, -1, 0, 25, 2, 16, 6), 0, 0.10674130716278497)
((-5, 3, -1, 0, 25, 2, 16, 6), 0, 0.1078035543944136)
((-5, 3, -1, 0, 25, 2, 16, 6), 0, 0.10884128384238144)
((-5, 3, -1, 0, 25, 2, 16, 6), 0, 0.10973190658838461)
((-5, 3, -1, 0, 25, 2, 16, 6), 0, 0.11073257427035361)
((-5, 3, -1, 0, 25, 2, 16, 6), 0, 0.11336167893221061)
((-5, 3, -1, 0, 25, 2, 16, 6), 0, 0.11511498555446398)
((3, -6, -4, -8, -17, -1, -8, 24), 0, 0.11635113799577952)
((3, -6, -4, -8, -17, -1, -8, 24), 0, 0.11723434838858292)
((3, -6, -4, -8, -17, -1, -8, 24), 0, 0.1180143560176049)
((3, -6, -4, -8, -17, -1, -8, 24), 0, 0.11890897003071565)
((3, -6, -4, -8, -17, -1, -8, 24), 0, 0.11980244368179566)
((3, -6, -4, -8, -17, -1, -8, 24), 0, 0.12135333604359376)
((3, -6, -4, -8, -17, -1, -8, 24), 0, 0.12251821585798843)
((-6, 0, 3, 14, 34, 12, 9, 0), 0, 0.12380796531474847)
((-6, 0, 3, 14, 34, 12, 9, 0), 0, 0.12482402788413237)
((-6, 0, 3, 14, 34, 12, 9, 0), 0, 0.1257796512658874)
((-6, 0, 3, 14, 34, 12, 9, 0), 0, 0.12662009808253827)
((-6, 0, 3, 14, 34, 12, 9, 0), 0, 0.1279303740558515)
((-6, 0, 3, 14, 34, 12, 9, 0), 0, 0.13088847316357524)
((-6, 0, 3, 14, 34, 12, 9, 0), 0, 0.132400023035313)
((-6, 0, 3, 14, 34, 12, 9, 0), 0, 0.13341608560469692)
((-6, 0, 3, 14, 34, 12, 9, 0), 0, 0.1347845200415776)
((-6, 0, 3, 14, 34, 12, 9, 0), 0, 0.13624760452700918)
((0, -4, -1, -1, -20, 0, -11, -6), 0, 0.1371581836085502)
((5, -1, 0, -1, 18, -1, -1, 11), 0, 0.1380915699307059)
((5, -1, 0, -1, 18, -1, -1, 11), 0, 0.13908425507845976)
((5, -1, 0, -1, 18, -1, -1, 11), 0, 0.1405000145396159)
((5, -1, 0, -1, 18, -1, -1, 11), 0, 0.14125151311786954)
((5, -1, 0, -1, 18, -1, -1, 11), 0, 0.14214327622590345)
((5, -1, 0, -1, 18, -1, -1, 11), 0, 0.14320552345753207)
((5, -1, 0, -1, 18, -1, -1, 11), 0, 0.14421303331168547)
((5, -1, 0, -1, 18, -1, -1, 11), 0, 0.14509852442855034)
((5, -1, 0, -1, 18, -1, -1, 11), 0, 0.1484146972139245)
((5, -1, 0, -1, 18, -1, -1, 11), 0, 0.15135398034814113)
((-1, -7, -4, -7, -12, 0, -20, -13), 0, 0.1529293904936)
((-1, -7, -4, -7, -12, 0, -20, -13), 0, 0.15486401467874006)
((-1, -7, -4, -7, -12, 0, -20, -13), 0, 0.15634762568072486)
((-1, -7, -4, -7, -12, 0, -20, -13), 0, 0.15780785926107962)
((-1, -7, -4, -7, -12, 0, -20, -13), 0, 0.1590155026516268)
((3, 1, 0, 2, 17, -3, -4, 14), 0, 0.1604335428368444)
((3, 1, 0, 2, 17, -3, -4, 14), 0, 0.16150491296471892)
((3, 1, 0, 2, 17, -3, -4, 14), 0, 0.1630905863684544)
((3, 1, 0, 2, 17, -3, -4, 14), 0, 0.1643415635161695)
((3, 1, 0, 2, 17, -3, -4, 14), 0, 0.16599394809870288)
((3, 1, 0, 2, 17, -3, -4, 14), 0, 0.16768681553332737)
((3, 1, 0, 2, 17, -3, -4, 14), 0, 0.17054855404945407)
((3, 1, 0, 2, 17, -3, -4, 14), 0, 0.17182804024793752)
((-1, -2, 0, -8, -22, -1, 3, -77), 0, 0.17472741071107845)
((-1, -2, 0, -8, -22, -1, 3, -77), 0, 0.17570356060938666)
((-1, -2, 0, -8, -22, -1, 3, -77), 0, 0.1766346662074809)
((-1, -2, 0, -8, -22, -1, 3, -77), 0, 0.1775264293155148)
((-1, -2, 0, -8, -22, -1, 3, -77), 0, 0.18023022769038485)
((-1, -2, 0, -8, -22, -1, 3, -77), 0, 0.18199721865700705)
((12, 5, 0, 1, -5, -2, 6, 97), 0, 0.1834865314691455)
((-3, -4, -3, 0, 17, 0, 1, -25), 0, 0.1848047899766739)
((-3, -4, -3, 0, 17, 0, 1, -25), 0, 0.18607287255485)
((-3, -4, -3, 0, 17, 0, 1, -25), 0, 0.18698231127436027)
((-3, -4, -3, 0, 17, 0, 1, -25), 0, 0.18809815552143339)
((-3, -4, -3, 0, 17, 0, 1, -25), 0, 0.18963935480597024)
((-3, -4, -3, 0, 17, 0, 1, -25), 0, 0.19129059902647294)
((-3, -4, -3, 0, 17, 0, 1, -25), 0, 0.19295666795337515)
((-3, -4, -3, 0, 17, 0, 1, -25), 0, 0.1938826419223311)
((-3, -4, -3, 0, 17, 0, 1, -25), 0, 0.1950777413305402)
((-3, -4, -3, 0, 17, 0, 1, -25), 0, 0.1965807384870475)
((1, 4, 4, -1, 10, 15, -15, 6), 0, 0.1983540014448387)
((1, 4, 4, -1, 10, 15, -15, 6), 0, 0.1993455462305618)
((1, 4, 4, -1, 10, 15, -15, 6), 0, 0.20034678409354617)
((1, 4, 4, -1, 10, 15, -15, 6), 0, 0.20123056466736494)
((1, 4, 4, -1, 10, 15, -15, 6), 0, 0.20262978887907543)
((1, 4, 4, -1, 10, 15, -15, 6), 0, 0.20425765567794807)
((1, 4, 4, -1, 10, 15, -15, 6), 0, 0.20524349865351754)
((1, 4, 4, -1, 10, 15, -15, 6), 0, 0.20793931449417247)
((1, 4, 4, -1, 10, 15, -15, 6), 0, 0.20928494169043846)
((1, 4, 4, -1, 10, 15, -15, 6), 0, 0.21053078720901525)
((2, -1, -3, -1, -15, -10, 25, 7), 0, 0.211628955844612)
((-5, -1, -2, 2, 23, 7, -12, -10), 0, 0.21419420023274788)
((-5, -1, -2, 2, 23, 7, -12, -10), 0, 0.21518118357034807)
((-5, -1, -2, 2, 23, 7, -12, -10), 0, 0.21630843143772854)
((-5, -1, -2, 2, 23, 7, -12, -10), 0, 0.21744366183932412)
((-5, -1, -2, 2, 23, 7, -12, -10), 0, 0.21884801768017292)
((-1, 1, -1, -1, 0, 3, 10, 10), 0, 0.2201942150574543)
((-1, 1, -1, -1, 0, 3, 10, 10), 0, 0.22135795450981824)
((-1, 1, -1, -1, 0, 3, 10, 10), 0, 0.22249603581649066)
((-1, 1, -1, -1, 0, 3, 10, 10), 0, 0.22383881210767984)
((-1, 1, -1, -1, 0, 3, 10, 10), 0, 0.22571527782925246)
((-1, 1, -1, -1, 0, 3, 10, 10), 0, 0.2269548513566602)
((-1, 1, -1, -1, 0, 3, 10, 10), 0, 0.22787683405850856)
((-1, 1, -1, -1, 0, 3, 10, 10), 0, 0.22883131707823282)
((-1, 1, -1, -1, 0, 3, 10, 10), 0, 0.23030352445991029)
((-1, 1, -1, -1, 0, 3, 10, 10), 0, 0.23116449779311438)
((-1, 1, -1, -1, 0, 3, 10, 10), 0, 0.23207963832277834)
((-1, 1, -1, -1, 0, 3, 10, 10), 0, 0.23302271772219527)
((0, -5, -5, -4, -7, -2, 5, 10), 0, 0.23610511629126898)
((0, -5, -5, -4, -7, -2, 5, 10), 0, 0.23868461520478906)
((0, -5, -5, -4, -7, -2, 5, 10), 0, 0.24020927923988028)
((0, -5, -5, -4, -7, -2, 5, 10), 0, 0.241228192714341)
((5, 12, -1, -1, 4, -6, -19, -11), 0, 0.24247974004307146)
((5, 12, -1, -1, 4, -6, -19, -11), 0, 0.24329966034316913)
((5, 12, -1, -1, 4, -6, -19, -11), 0, 0.24438072354830487)
((5, 12, -1, -1, 4, -6, -19, -11), 0, 0.2453277942148294)
((5, 12, -1, -1, 4, -6, -19, -11), 0, 0.24647271769368623)
((5, 12, -1, -1, 4, -6, -19, -11), 0, 0.24794321453231757)
((5, 12, -1, -1, 4, -6, -19, -11), 0, 0.24876142428936915)
((5, 12, -1, -1, 4, -6, -19, -11), 0, 0.24981853989185948)
((5, 12, -1, -1, 4, -6, -19, -11), 0, 0.2508152163067209)
((5, 12, -1, -1, 4, -6, -19, -11), 0, 0.25899332261012903)
((-8, -4, 0, -1, -1, -6, -1, -19), 0, 0.2663133064854099)
((-8, -4, 0, -1, -1, -6, -1, -19), 0, 0.2675785381585092)
((-8, -4, 0, -1, -1, -6, -1, -19), 0, 0.2688722788823768)
((-8, -4, 0, -1, -1, -6, -1, -19), 0, 0.2722243730717191)
((-8, -4, 0, -1, -1, -6, -1, -19), 0, 0.2740814526387692)
((-1, -4, -2, -5, -1, 10, -2, -6), 0, 0.2750399269256011)
((-1, -4, -2, -5, -1, 10, -2, -6), 0, 0.27586954030295996)
((-1, -4, -2, -5, -1, 10, -2, -6), 0, 0.27679836517699274)
((-1, -4, -2, -5, -1, 10, -2, -6), 0, 0.2780960971679679)
((-2, -2, -3, -3, 1, -2, 3, 1), 0, 0.2802348461566093)
((-2, -2, -3, -3, 1, -2, 3, 1), 0, 0.28150634982087763)
((-2, -2, -3, -3, 1, -2, 3, 1), 0, 0.28228008545873057)
((-2, -2, -3, -3, 1, -2, 3, 1), 0, 0.28309202322461313)
((-2, -2, -3, -3, 1, -2, 3, 1), 0, 0.28396782126421677)
((-2, -2, -3, -3, 1, -2, 3, 1), 0, 0.2849297166371408)
((-2, -2, -3, -3, 1, -2, 3, 1), 0, 0.28626508057513017)
((-2, -2, -3, -3, 1, -2, 3, 1), 0, 0.2876067165042886)
((-2, -2, -3, -3, 1, -2, 3, 1), 0, 0.2886803673562246)
((-2, -2, -3, -3, 1, -2, 3, 1), 0, 0.29100613571790634)
((-2, -2, -3, -3, 1, -2, 3, 1), 0, 0.29185741597384923)
((-2, -2, -3, -3, 1, -2, 3, 1), 0, 0.2930097518059058)
((1, 5, -2, -1, -3, 0, -7, 4), 0, 0.2943645018984177)
((-3, -5, -1, -1, 6, -1, -1, 4), 0, 0.2953714415715557)
((-3, -5, -1, -1, 6, -1, -1, 4), 0, 0.2971549677876235)
((-3, -5, -1, -1, 6, -1, -1, 4), 0, 0.29811401225547074)
((-3, -5, -1, -1, 6, -1, -1, 4), 0, 0.29898011721781315)
((-3, -5, -1, -1, 6, -1, -1, 4), 0, 0.30055666772530276)
((-1, -5, -2, 5, -23, -16, -18, -6), 0, 0.30164343274059213)
((-1, -5, -2, 5, -23, -16, -18, -6), 0, 0.30259107358813203)
((-1, -5, -2, 5, -23, -16, -18, -6), 0, 0.30363792593234573)
((-1, -5, -2, 5, -23, -16, -18, -6), 0, 0.30560448025434633)
((-1, -5, -2, 5, -23, -16, -18, -6), 0, 0.3096248265936987)
((-1, -5, -2, 5, -23, -16, -18, -6), 0, 0.31149901159120985)
((-1, -5, -2, 5, -23, -16, -18, -6), 0, 0.3138669733480288)
((-1, -5, -2, 5, -23, -16, -18, -6), 0, 0.3152485219482629)
((-4, -2, -3, -5, 14, 1, 3, -16), 0, 0.3162697161467851)
((-1, -3, -2, -2, -8, -3, 10, 3), 0, 0.31712669821288164)
((-1, -3, -2, -2, -8, -3, 10, 3), 0, 0.31836627174028936)
((-1, -3, -2, -2, -8, -3, 10, 3), 0, 0.319179920049218)
((-1, -3, -2, -2, -8, -3, 10, 3), 0, 0.3202119476870322)
((-1, -3, -2, -2, -8, -3, 10, 3), 0, 0.32124625604890783)
((-1, -3, -2, -2, -8, -3, 10, 3), 0, 0.32259188324517385)
((-1, -3, -2, -2, -8, -3, 10, 3), 0, 0.3241176876422958)
((-1, -3, -2, -2, -8, -3, 10, 3), 0, 0.3253099361454281)
((-1, -3, -2, -2, -8, -3, 10, 3), 0, 0.32624731373469135)
((-1, -3, -2, -2, -8, -3, 10, 3), 0, 0.32735175436145714)
((-1, -3, -2, -2, -8, -3, 10, 3), 0, 0.32824522801253714)
((-1, -3, -2, -2, -8, -3, 10, 3), 0, 0.3303959508025013)
((-1, -3, -2, -2, -8, -3, 10, 3), 0, 0.33186074583097896)
((-2, -1, 0, 9, -9, -8, 0, 1), 0, 0.3327502282149514)
((-2, -1, 0, 9, -9, -8, 0, 1), 0, 0.3336522545812619)
((-2, -1, 0, 9, -9, -8, 0, 1), 0, 0.3344088847886538)
((-2, -1, 0, 9, -9, -8, 0, 1), 0, 0.33529950753465704)
((-2, -1, 0, 9, -9, -8, 0, 1), 0, 0.336401097256346)
((-2, -1, 0, 9, -9, -8, 0, 1), 0, 0.3374074667484686)
((-2, -1, 0, 9, -9, -8, 0, 1), 0, 0.33859458362246264)
((-4, -3, 0, -2, 11, 5, 4, -10), 0, 0.33977143723818)
((-4, -3, 0, -2, 11, 5, 4, -10), 0, 0.3408838603991609)
((-4, -3, 0, -2, 11, 5, 4, -10), 0, 0.3422694002665026)
((-4, -3, 0, -2, 11, 5, 4, -10), 0, 0.3435545882751397)
((-4, -3, 0, -2, 11, 5, 4, -10), 0, 0.34444749174520434)
((-4, -3, 0, -2, 11, 5, 4, -10), 0, 0.3475709433473845)
((-4, -3, 0, -2, 11, 5, 4, -10), 0, 0.34872898098959476)
((-4, -3, 0, -2, 11, 5, 4, -10), 0, 0.3495905245038142)
((-4, -3, 0, -2, 11, 5, 4, -10), 0, 0.3503522863403445)
((-4, -3, 0, -2, 11, 5, 4, -10), 0, 0.35111347799585935)
((-4, -3, 0, -2, 11, 5, 4, -10), 0, 0.3518490115056827)
((-4, -3, 0, -2, 11, 5, 4, -10), 0, 0.3529568732185407)
((-2, -8, -3, -8, -2, -4, 3, 4), 0, 0.354041927690784)
((-2, -8, -3, -8, -2, -4, 3, 4), 0, 0.3555472055713527)
((-2, -8, -3, -8, -2, -4, 3, 4), 0, 0.35680958633937515)
((-2, -8, -3, -8, -2, -4, 3, 4), 0, 0.3578279296328205)
((-2, -8, -3, -8, -2, -4, 3, 4), 0, 0.35913193361496476)
((-2, -8, -3, -8, -2, -4, 3, 4), 0, 0.3596610615972253)
((-2, -8, -3, -8, -2, -4, 3, 4), 0, 0.36061155334984196)
((5, -3, -3, -4, -18, -3, -2, -20), 0, 0.3616395897205486)
((2, 4, -2, 0, 5, -3, -7, 8), 0, 0.36278223247534397)
((2, 4, -2, 0, 5, -3, -7, 8), 0, 0.36462049606888697)
((2, 4, -2, 0, 5, -3, -7, 8), 0, 0.36553050496941264)
((2, 4, -2, 0, 5, -3, -7, 8), 0, 0.36630195988320413)
((2, 4, -2, 0, 5, -3, -7, 8), 0, 0.3672079775166222)
((2, 4, -2, 0, 5, -3, -7, 8), 0, 0.36819268013016093)
((2, 4, -2, 0, 5, -3, -7, 8), 0, 0.3690884345053024)
((2, 4, -2, 0, 5, -3, -7, 8), 0, 0.369867871953309)
((2, 4, -2, 0, 5, -3, -7, 8), 0, 0.37063533559999295)
((2, 4, -2, 0, 5, -3, -7, 8), 0, 0.3714706507875055)
((2, 4, -2, 0, 5, -3, -7, 8), 0, 0.3723435979220323)
((2, 4, -2, 0, 5, -3, -7, 8), 0, 0.3738323405531554)
((2, 4, -2, 0, 5, -3, -7, 8), 0, 0.3761911794137285)
((2, 4, -2, 0, 5, -3, -7, 8), 0, 0.37765198317509857)
((-3, -1, 1, 1, -5, -17, 18, -4), 0, 0.3787438798195263)
((-3, -1, 1, 1, -5, -17, 18, -4), 0, 0.3802052537619118)
((-3, -1, 1, 1, -5, -17, 18, -4), 0, 0.38124241302886425)
((-3, -1, 1, 1, -5, -17, 18, -4), 0, 0.3822476421589562)
((-3, -1, 1, 1, -5, -17, 18, -4), 0, 0.38351971600423984)
((-3, -1, 1, 1, -5, -17, 18, -4), 0, 0.38438411042353615)
((-3, -1, 1, 1, -5, -17, 18, -4), 0, 0.38519832891348016)
((-3, -1, 1, 1, -5, -17, 18, -4), 0, 0.38598517871468657)
((-3, -1, 1, 1, -5, -17, 18, -4), 0, 0.3869955394739168)
((-3, -1, 1, 1, -5, -17, 18, -4), 0, 0.38781774049807594)
((-3, -1, 1, 1, -5, -17, 18, -4), 0, 0.3887049421579869)
((-3, -1, 1, 1, -5, -17, 18, -4), 0, 0.3896611357207573)
((-3, -1, 1, 1, -5, -17, 18, -4), 0, 0.39107062319074437)
((-1, 7, -2, -2, 8, 10, 13, 2), 0, 0.3930765200028053)
((-1, 7, -2, -2, 8, 10, 13, 2), 0, 0.39428530375538323)
((-1, 7, -2, -2, 8, 10, 13, 2), 0, 0.39539601637331806)
((-1, 7, -2, -2, 8, 10, 13, 2), 0, 0.39759349400654226)
((-1, 7, -2, -2, 8, 10, 13, 2), 0, 0.3988917961785328)
((-8, -2, -2, -2, -25, -13, -6, -6), 0, 0.40040562677433206)
((1, -5, -4, -7, 1, 4, -3, -1), 0, 0.4014422158602692)
((1, -5, -4, -7, 1, 4, -3, -1), 0, 0.40244459408528427)
((1, -5, -4, -7, 1, 4, -3, -1), 0, 0.4033306553831645)
((1, -5, -4, -7, 1, 4, -3, -1), 0, 0.4041043910210174)
((1, -5, -4, -7, 1, 4, -3, -1), 0, 0.4050537424116034)
((1, -5, -4, -7, 1, 4, -3, -1), 0, 0.4059951112679742)
((1, -5, -4, -7, 1, 4, -3, -1), 0, 0.40693990121043727)
((1, -5, -4, -7, 1, 4, -3, -1), 0, 0.40808254396523264)
((1, -5, -4, -7, 1, 4, -3, -1), 0, 0.4148773911253606)
((1, -5, -4, -7, 1, 4, -3, -1), 0, 0.4162925804055013)
((1, -2, 2, 7, -1, -4, 4, 0), 0, 0.41759145275850723)
((1, -2, 2, 7, -1, -4, 4, 0), 0, 0.4183908465420517)
((1, -2, 2, 7, -1, -4, 4, 0), 0, 0.4191970824977806)
((1, -2, 2, 7, -1, -4, 4, 0), 0, 0.42067043024148876)
((-2, -3, -1, -2, 16, 3, -13, 1), 0, 0.42156732497866095)
((1, -2, -2, -1, 7, 3, -6, -2), 0, 0.4223729907533745)
((1, -2, -2, -1, 7, 3, -6, -2), 0, 0.4232248411903327)
((1, -2, -2, -1, 7, 3, -6, -2), 0, 0.42415537660741154)
((1, -2, -2, -1, 7, 3, -6, -2), 0, 0.4250853418434751)
((1, -2, -2, -1, 7, 3, -6, -2), 0, 0.4264457937461406)
((1, -2, -2, -1, 7, 3, -6, -2), 0, 0.42792826438609466)
((1, -2, -2, -1, 7, 3, -6, -2), 0, 0.4308053977896363)
((1, -2, -2, -1, 7, 3, -6, -2), 0, 0.4316566780455791)
((1, -2, -2, -1, 7, 3, -6, -2), 0, 0.4325045372154298)
((1, -2, -2, -1, 7, 3, -6, -2), 0, 0.43335581747137264)
((1, -2, -2, -1, 7, 3, -6, -2), 0, 0.43422363297676114)
((1, -2, -2, -1, 7, 3, -6, -2), 0, 0.43533206487063447)
((-2, 0, -3, -3, -22, -2, 3, -12), 0, 0.4364633040051225)
((2, -3, -1, 1, -3, -8, -10, 2), 0, 0.43729462792552753)
((2, -3, -1, 1, -3, -8, -10, 2), 0, 0.4381749874132541)
((2, -3, -1, 1, -3, -8, -10, 2), 0, 0.43941228021660034)
((2, -3, -1, 1, -3, -8, -10, 2), 0, 0.4401997001988221)
((2, -3, -1, 1, -3, -8, -10, 2), 0, 0.44103216448125787)
((2, -3, -1, 1, -3, -8, -10, 2), 0, 0.44206191139501055)
((2, -3, -1, 1, -3, -8, -10, 2), 0, 0.44418754622029855)
((2, -3, -1, 1, -3, -8, -10, 2), 0, 0.44734577886441607)
((2, -3, -1, 1, -3, -8, -10, 2), 0, 0.4486395195882837)
((2, -3, -1, 1, -3, -8, -10, 2), 0, 0.4496036956852692)
((2, -3, -1, 1, -3, -8, -10, 2), 0, 0.4508683571773531)
((5, -1, 0, 6, 9, 2, 1, 3), 0, 0.4518975339100904)
((5, -1, 0, 6, 9, 2, 1, 3), 0, 0.45270319968480394)
((5, -1, 0, 6, 9, 2, 1, 3), 0, 0.4534775055036723)
((5, -1, 0, 6, 9, 2, 1, 3), 0, 0.4543065487000158)
((5, -1, 0, 6, 9, 2, 1, 3), 0, 0.45509396868223756)
((5, -1, 0, 6, 9, 2, 1, 3), 0, 0.4558745464922749)
((5, -1, 0, 6, 9, 2, 1, 3), 0, 0.4577162311719101)
((5, -1, 0, 6, 9, 2, 1, 3), 0, 0.4586610211143732)
((-2, -4, -2, 0, 5, 10, -8, -3), 0, 0.4600248941031309)
((-2, -4, -2, 0, 5, 10, -8, -3), 0, 0.46129297668130703)
((-2, -4, -2, 0, 5, 10, -8, -3), 0, 0.4637008511092016)
((-2, -4, -2, 0, 5, 10, -8, -3), 0, 0.46535551641579653)
((-2, -4, -2, 0, 5, 10, -8, -3), 0, 0.46636017536487306)
((-2, -4, -2, 0, 5, 10, -8, -3), 0, 0.46751479192099116)
((-2, -4, -2, 0, 5, 10, -8, -3), 0, 0.4683991426758253)
((-2, -4, -2, 0, 5, 10, -8, -3), 0, 0.46928691451675164)
((-2, -4, -2, 0, 5, 10, -8, -3), 0, 0.47002187784555965)
((-2, -4, -2, 0, 5, 10, -8, -3), 0, 0.4707990345695048)
((-2, -4, -2, 0, 5, 10, -8, -3), 0, 0.47160698106827975)
((-2, -4, -2, 0, 5, 10, -8, -3), 0, 0.4725648851740962)
((-2, -4, -2, 0, 5, 10, -8, -3), 0, 0.47350283294437484)
((-2, 0, -3, -9, 8, -3, -21, -2), 0, 0.4743769204409324)
((-2, 0, -3, -9, 8, -3, -21, -2), 0, 0.47504004096180413)
((-2, 0, -3, -9, 8, -3, -21, -2), 0, 0.47685492713371713)
((-2, 0, -3, -9, 8, -3, -21, -2), 0, 0.47800213133663544)
((0, 1, 1, 1, -2, 2, 8, 0), 0, 0.4820863379497089)
((0, 1, 1, 1, -2, 2, 8, 0), 0, 0.48342227206871363)
((0, 1, 1, 1, -2, 2, 8, 0), 0, 0.48425758725622625)
((0, 1, 1, 1, -2, 2, 8, 0), 0, 0.4851795699580746)
((0, 1, 1, 1, -2, 2, 8, 0), 0, 0.48648984593138783)
((0, 1, 1, 1, -2, 2, 8, 0), 0, 0.4878742454366988)
((0, 1, 1, 1, -2, 2, 8, 0), 0, 0.4889484664696501)
((0, 1, 1, 1, -2, 2, 8, 0), 0, 0.4898807124297751)
((0, 1, 1, 1, -2, 2, 8, 0), 0, 0.4907074749020572)
((0, 1, 1, 1, -2, 2, 8, 0), 0, 0.491451561127111)
((0, 1, 1, 1, -2, 2, 8, 0), 0, 0.49217398047358096)
((0, 1, 1, 1, -2, 2, 8, 0), 0, 0.4931136387869057)
((0, 1, 1, 1, -2, 2, 8, 0), 0, 0.4942865011355155)
((0, 1, 1, 1, -2, 2, 8, 0), 0, 0.49716135381499565)
((-1, 5, -1, -2, 6, 1, -13, -5), 0, 0.49939019140406504)
((-1, 5, -1, -2, 6, 1, -13, -5), 0, 0.5006964761102707)
((-1, 5, -1, -2, 6, 1, -13, -5), 0, 0.5015979322955658)
((-1, 5, -1, -2, 6, 1, -13, -5), 0, 0.5028449181761734)
((-1, 5, -1, -2, 6, 1, -13, -5), 0, 0.5038187873504202)
((-1, 5, -1, -2, 6, 1, -13, -5), 0, 0.5055116547850446)
((-1, 5, -1, -2, 6, 1, -13, -5), 0, 0.5063726281182487)
((-1, 5, -1, -2, 6, 1, -13, -5), 0, 0.5071760131689007)
((-1, 5, -1, -2, 6, 1, -13, -5), 0, 0.5080187407096131)
((-1, 5, -1, -2, 6, 1, -13, -5), 0, 0.508824976665342)
((-1, 5, -1, -2, 6, 1, -13, -5), 0, 0.5098393286916797)
((-1, 5, -1, -2, 6, 1, -13, -5), 0, 0.5116091705633787)
((-1, 5, -1, -2, 6, 1, -13, -5), 0, 0.5135209875079041)
((-1, 5, -1, -2, 6, 1, -13, -5), 0, 0.5187147663768816)
((-1, 5, -1, -2, 6, 1, -13, -5), 0, 0.5200050860146571)
((1, -1, -1, -4, 21, 5, 3, -6), 0, 0.5210507979968401)
((1, -1, -1, -4, 21, 5, 3, -6), 0, 0.5218382179790618)
((1, -1, -1, -4, 21, 5, 3, -6), 0, 0.5226330503144834)
((1, -1, -1, -4, 21, 5, 3, -6), 0, 0.5234193299346743)
((1, -1, -1, -4, 21, 5, 3, -6), 0, 0.5244627611927959)
((1, -1, -1, -4, 21, 5, 3, -6), 0, 0.5254919379255332)
((-3, -2, -3, 0, -17, -1, 7, 16), 0, 0.5264241838856581)
((1, -4, -1, 0, 4, -1, 2, -26), 0, 0.5274767380400256)
((1, -4, -1, 0, 4, -1, 2, -26), 0, 0.5287596453246012)
((1, -4, -1, 0, 4, -1, 2, -26), 0, 0.5302312825252633)
((1, -4, -1, 0, 4, -1, 2, -26), 0, 0.5313779165471663)
((1, -4, -1, 0, 4, -1, 2, -26), 0, 0.5342265408999395)
((1, -4, -1, 0, 4, -1, 2, -26), 0, 0.5353788767319961)
((1, -4, -1, 0, 4, -1, 2, -26), 0, 0.5362147621005241)
((1, -4, -1, 0, 4, -1, 2, -26), 0, 0.5371777978354788)
((1, -4, -1, 0, 4, -1, 2, -26), 0, 0.5381533775527717)
((1, -4, -1, 0, 4, -1, 2, -26), 0, 0.5389550520603776)
((1, -4, -1, 0, 4, -1, 2, -26), 0, 0.5399870796981918)
((1, -4, -1, 0, 4, -1, 2, -26), 0, 0.5409466943470543)
((2, -1, -3, -2, -6, -4, 4, 0), 0, 0.5418892035654559)
((2, -1, -3, -2, -6, -4, 4, 0), 0, 0.5436943966601077)
((2, -1, -3, -2, -6, -4, 4, 0), 0, 0.5446106775518024)
((2, -1, -3, -2, -6, -4, 4, 0), 0, 0.5458148998562574)
((2, -1, -3, -2, -6, -4, 4, 0), 0, 0.5472414927567054)
((2, -1, -3, -2, -6, -4, 4, 0), 0, 0.5487359371979822)
((0, -2, -4, -5, 3, 0, 0, 24), 0, 0.5507811765001035)
((0, -2, -4, -5, 3, 0, 0, 24), 0, 0.5524540875991901)
((0, -2, -4, -5, 3, 0, 0, 24), 0, 0.55327742898538)
((0, -2, -4, -5, 3, 0, 0, 24), 0, 0.5542073942214435)
((0, -2, -4, -5, 3, 0, 0, 24), 0, 0.5554144674309753)
((0, -2, -4, -5, 3, 0, 0, 24), 0, 0.5563444326670388)
((0, -2, -4, -5, 3, 0, 0, 24), 0, 0.5571461071746447)
((0, -2, -4, -5, 3, 0, 0, 24), 0, 0.5579494922252968)
((0, -2, -4, -5, 3, 0, 0, 24), 0, 0.5587460351037644)
((0, -2, -4, -5, 3, 0, 0, 24), 0, 0.5595180601985712)
((0, -2, -4, -5, 3, 0, 0, 24), 0, 0.5606145182911219)
((0, -2, -4, -5, 3, 0, 0, 24), 0, 0.5633188868470074)
((0, -2, -4, -5, 3, 0, 0, 24), 0, 0.5645653025465994)
((-7, -13, -2, 0, -5, 0, 3, 13), 0, 0.5658584730894517)
((-7, -13, -2, 0, -5, 0, 3, 13), 0, 0.5669121676058498)
((-7, -13, -2, 0, -5, 0, 3, 13), 0, 0.5679413443385871)
((-7, -13, -2, 0, -5, 0, 3, 13), 0, 0.5688490725150513)
((-7, -13, -2, 0, -5, 0, 3, 13), 0, 0.5697317127268394)
((-7, -13, -2, 0, -5, 0, 3, 13), 0, 0.5715260723821992)
((-7, -13, -2, 0, -5, 0, 3, 13), 0, 0.5724252478434328)
((-7, -13, -2, 0, -5, 0, 3, 13), 0, 0.5732577121258686)
((-7, -13, -2, 0, -5, 0, 3, 13), 0, 0.5740422812030135)
((-7, -13, -2, 0, -5, 0, 3, 13), 0, 0.5747914990572057)
((-7, -13, -2, 0, -5, 0, 3, 13), 0, 0.5755526907127205)
((-7, -13, -2, 0, -5, 0, 3, 13), 0, 0.5763880059002332)
((-7, -13, -2, 0, -5, 0, 3, 13), 0, 0.5775711315071196)
((-7, -13, -2, 0, -5, 0, 3, 13), 0, 0.5791317169461789)
((-3, 0, -4, -6, 26, 5, 1, -3), 0, 0.5807909437008967)
((-3, 0, -4, -6, 26, 5, 1, -3), 0, 0.5819695078596602)
((-3, 0, -4, -6, 26, 5, 1, -3), 0, 0.5830283340051966)
((-3, 0, -4, -6, 26, 5, 1, -3), 0, 0.5843591364950631)
((-3, 0, -4, -6, 26, 5, 1, -3), 0, 0.5856380525125312)
((-3, 0, -4, -6, 26, 5, 1, -3), 0, 0.5866849048567448)
((-3, 0, -4, -6, 26, 5, 1, -3), 0, 0.5874643423047515)
((-3, 0, -4, -6, 26, 5, 1, -3), 0, 0.5883207541898327)
((-3, 0, -4, -6, 26, 5, 1, -3), 0, 0.589238175443558)
((-3, 0, -4, -6, 26, 5, 1, -3), 0, 0.5906254258539458)
((-3, 0, -4, -6, 26, 5, 1, -3), 0, 0.5914231090944442)
((-3, 0, -4, -6, 26, 5, 1, -3), 0, 0.5924232065953978)
((-3, 0, -4, -6, 26, 5, 1, -3), 0, 0.5935076908866258)
((-6, 0, 0, -1, -7, -6, 4, -2), 0, 0.5945779206524695)
((-6, 0, 0, -1, -7, -6, 4, -2), 0, 0.5957832833189552)
((-6, 0, 0, -1, -7, -6, 4, -2), 0, 0.5967463190539101)
((-6, 0, 0, -1, -7, -6, 4, -2), 0, 0.5977030827976958)
((-6, 0, 0, -1, -7, -6, 4, -2), 0, 0.6001970545589108)
((-6, 0, 0, -1, -7, -6, 4, -2), 0, 0.6015786031591449)
((-4, 2, -1, -4, -24, -4, -12, -27), 0, 0.6027890974547689)
((-4, 2, -1, -4, -24, -4, -12, -27), 0, 0.6037931862228302)
((-4, 2, -1, -4, -24, -4, -12, -27), 0, 0.6046079748937895)
((-4, 2, -1, -4, -24, -4, -12, -27), 0, 0.6054096494013954)
((-4, 2, -1, -4, -24, -4, -12, -27), 0, 0.6063093950436446)
((-4, 2, -1, -4, -24, -4, -12, -27), 0, 0.6074959417366231)
((-4, 2, -1, -4, -24, -4, -12, -27), 0, 0.6084595476525932)
((-4, 2, -1, -4, -24, -4, -12, -27), 0, 0.6096249976480033)
((-4, 2, -1, -4, -24, -4, -12, -27), 0, 0.61069978886197)
((-4, 2, -1, -4, -24, -4, -12, -27), 0, 0.6119804154224842)
((-4, 2, -1, -4, -24, -4, -12, -27), 0, 0.6131692428395242)
((-4, 2, -1, -4, -24, -4, -12, -27), 0, 0.6144920627951755)
((-4, 2, -1, -4, -24, -4, -12, -27), 0, 0.6163445809141028)
((1, 0, 1, -2, 6, 12, -45, 8), 0, 0.6186310067857242)
((1, 0, 1, -2, 6, 12, -45, 8), 0, 0.6222909987233647)
((1, 0, 1, -2, 6, 12, -45, 8), 0, 0.6238053995001793)
((1, 0, 1, -2, 6, 12, -45, 8), 0, 0.625128789636846)
((1, 0, 1, -2, 6, 12, -45, 8), 0, 0.6260171316587877)
((1, 0, 1, -2, 6, 12, -45, 8), 0, 0.6276980252920895)
((1, 0, 1, -2, 6, 12, -45, 8), 0, 0.6293201902808084)
((1, 0, 1, -2, 6, 12, -45, 8), 0, 0.6306726596492589)
((-4, -3, -6, -8, -10, -13, 44, -31), 0, 0.6317907846203934)
((-4, 0, 0, 2, -2, 4, -12, -3), 0, 0.6327104865981803)
((-4, 0, 0, 2, -2, 4, -12, -3), 0, 0.6337214175384259)
((-4, 0, 0, 2, -2, 4, -12, -3), 0, 0.6347882262181774)
((-4, 0, 0, 2, -2, 4, -12, -3), 0, 0.637205223542318)
((-4, 0, 0, 2, -2, 4, -12, -3), 0, 0.6385206311447695)
((4, 0, 0, 2, -5, -4, -10, 0), 0, 0.6395828783763982)
((4, 0, 0, 2, -5, -4, -10, 0), 0, 0.64031613116216)
((4, 0, 0, 2, -5, -4, -10, 0), 0, 0.6413270621024056)
((4, 0, 0, 2, -5, -4, -10, 0), 0, 0.6421258857049348)
((4, 0, 0, 2, -5, -4, -10, 0), 0, 0.6429515078151861)
((4, 0, 0, 2, -5, -4, -10, 0), 0, 0.6439977899783844)
((4, 0, 0, 2, -5, -4, -10, 0), 0, 0.6469929508521071)
((4, 0, 0, 2, -5, -4, -10, 0), 0, 0.6478938368563868)
((4, 0, 0, 2, -5, -4, -10, 0), 0, 0.6486230983750412)
((4, 0, 0, 2, -5, -4, -10, 0), 0, 0.6495103000349521)
((4, 0, 0, 2, -5, -4, -10, 0), 0, 0.6506740394873161)
((4, 0, 0, 2, -5, -4, -10, 0), 0, 0.6517779099330665)
((4, 0, 0, 2, -5, -4, -10, 0), 0, 0.6539098167495234)
((4, 0, 0, 2, -5, -4, -10, 0), 0, 0.6551836011378532)
((-3, -2, 0, 4, -2, 5, -4, 0), 0, 0.656541202135442)
((-3, -2, 0, 4, -2, 5, -4, 0), 0, 0.6572898498086187)
((-3, -2, 0, 4, -2, 5, -4, 0), 0, 0.6581439809696384)
((-3, -2, 0, 4, -2, 5, -4, 0), 0, 0.6590631127664099)
((-3, -2, 0, 4, -2, 5, -4, 0), 0, 0.6603756694637847)
((5, 2, 0, 0, 3, 1, 13, -6), 0, 0.6618091045364172)
((1, -12, -2, -1, 11, -2, 19, 5), 0, 0.6632003462139126)
((1, -12, -2, -1, 11, -2, 19, 5), 0, 0.6640134243418258)
((1, -12, -2, -1, 11, -2, 19, 5), 0, 0.6659360747256432)
((1, -12, -2, -1, 11, -2, 19, 5), 0, 0.6668067411361085)
((1, -12, -2, -1, 11, -2, 19, 5), 0, 0.6683433789725224)
((1, -12, -2, -1, 11, -2, 19, 5), 0, 0.66983896377583)
((1, -12, -2, -1, 11, -2, 19, 5), 0, 0.6709456851266572)
((1, -12, -2, -1, 11, -2, 19, 5), 0, 0.672017625435547)
((1, -12, -2, -1, 11, -2, 19, 5), 0, 0.6730981184596674)
((1, -12, -2, -1, 11, -2, 19, 5), 0, 0.6738798366317355)
((1, -12, -2, -1, 11, -2, 19, 5), 0, 0.6757106878720788)
((1, 4, -2, -2, -6, -5, 17, 9), 0, 0.6767364435187239)
((1, 4, -2, -2, -6, -5, 17, 9), 0, 0.6777405322867851)
((1, 4, -2, -2, -6, -5, 17, 9), 0, 0.6791180896199116)
((1, 4, -2, -2, -6, -5, 17, 9), 0, 0.6800087123659148)
((1, 4, -2, -2, -6, -5, 17, 9), 0, 0.6808109570545361)
((1, 4, -2, -2, -6, -5, 17, 9), 0, 0.681545920383344)
((1, 4, -2, -2, -6, -5, 17, 9), 0, 0.6826554926392482)
((1, 4, -2, -2, -6, -5, 17, 9), 0, 0.6836960729922928)
((1, 4, -2, -2, -6, -5, 17, 9), 0, 0.6848381455660728)
((1, 4, -2, -2, -6, -5, 17, 9), 0, 0.6859978937513292)
((1, 4, -2, -2, -6, -5, 17, 9), 0, 0.6868622881706256)
((1, 4, -2, -2, -6, -5, 17, 9), 0, 0.6884730495390372)
((1, 4, -2, -2, -6, -5, 17, 9), 0, 0.6900461789604345)
((1, 4, -2, -2, -6, -5, 17, 9), 0, 0.6910896102185561)
((-3, -1, -1, -1, 2, 6, -4, -6), 0, 0.6920070314722815)
((-3, -1, -1, -1, 2, 6, -4, -6), 0, 0.6938538477810551)
((-3, -1, -1, -1, 2, 6, -4, -6), 0, 0.6954132928580836)
((-3, -1, -1, -1, 2, 6, -4, -6), 0, 0.6965411109064795)
((-3, -1, -1, -1, 2, 6, -4, -6), 0, 0.69771511361712)
((1, 2, -1, 2, 10, 4, 7, 13), 0, 0.6987819222968716)
((-2, 0, -1, -2, -17, -5, 3, 0), 0, 0.6997312736874576)
((-2, 0, -1, -2, -17, -5, 3, 0), 0, 0.700524395479833)
((-2, 0, -1, -2, -17, -5, 3, 0), 0, 0.701441246552543)
((-2, 0, -1, -2, -17, -5, 3, 0), 0, 0.7028815237973599)
((-2, 0, -1, -2, -17, -5, 3, 0), 0, 0.7038719282210524)
((-2, 0, -1, -2, -17, -5, 3, 0), 0, 0.705144002066336)
((-2, 0, -1, -2, -17, -5, 3, 0), 0, 0.7067576143398244)
((-2, 0, -1, -2, -17, -5, 3, 0), 0, 0.7076870093948726)
((-2, 0, -1, -2, -17, -5, 3, 0), 0, 0.7084356570680493)
((-2, 0, -1, -2, -17, -5, 3, 0), 0, 0.7091871556463031)
((-2, 0, -1, -2, -17, -5, 3, 0), 0, 0.7100327340920922)
((-2, 0, -1, -2, -17, -5, 3, 0), 0, 0.7114148528733417)
((-2, 0, -1, -2, -17, -5, 3, 0), 0, 0.713847245084897)
((-3, 4, -1, -2, 3, -10, -17, -36), 0, 0.7149762034953236)
((-3, 4, -1, -2, 3, -10, -17, -36), 0, 0.7158959054731105)
((-3, 4, -1, -2, 3, -10, -17, -36), 0, 0.7166394215171491)
((-3, 4, -1, -2, 3, -10, -17, -36), 0, 0.723745017330652)
((-2, -1, -1, 1, 12, -5, 4, -1), 0, 0.7248129663724343)
((-2, -1, -1, 1, 12, -5, 4, -1), 0, 0.7256032372597329)
((-2, -1, -1, 1, 12, -5, 4, -1), 0, 0.7264037714053081)
((-2, -1, -1, 1, 12, -5, 4, -1), 0, 0.7274306674139839)
((-2, -1, -1, 1, 12, -5, 4, -1), 0, 0.7300985443848859)
((-2, -1, -1, 1, 12, -5, 4, -1), 0, 0.7315325496385338)
((-2, -1, -1, 1, 12, -5, 4, -1), 0, 0.732469927227797)
((-2, -1, -1, 1, 12, -5, 4, -1), 0, 0.7332869966228178)
((-2, -1, -1, 1, 12, -5, 4, -1), 0, 0.7341975757043588)
((-2, -1, -1, 1, 12, -5, 4, -1), 0, 0.7352900425298019)
((-5, 2, 3, 4, -1, 5, -7, -2), 0, 0.7363015436510629)
((0, -3, -4, -5, -2, -5, -2, 7), 0, 0.7372457634125106)
((0, -3, -4, -5, -2, -5, -2, 7), 0, 0.73848020531078)
((0, -3, -4, -5, -2, -5, -2, 7), 0, 0.7394985486042254)
((0, -3, -4, -5, -2, -5, -2, 7), 0, 0.7410802307408533)
((0, -3, -4, -5, -2, -5, -2, 7), 0, 0.7420204592351934)
((0, -3, -4, -5, -2, -5, -2, 7), 0, 0.7430416534337156)
((-3, 1, 0, 0, 4, -10, 17, -9), 0, 0.7440132418839008)
((-3, 1, 0, 0, 4, -10, 17, -9), 0, 0.7462489216451547)
((-3, 1, 0, 0, 4, -10, 17, -9), 0, 0.7473271339452136)
((-3, 1, 0, 0, 4, -10, 17, -9), 0, 0.7481459138832806)
((-3, 1, 0, 0, 4, -10, 17, -9), 0, 0.7489133775299645)
((-3, 1, 0, 0, 4, -10, 17, -9), 0, 0.7507807203552912)
((-3, 1, 0, 0, 4, -10, 17, -9), 0, 0.7518270025184896)
((-3, 1, 0, 0, 4, -10, 17, -9), 0, 0.7525790712777586)
((-3, 1, 0, 0, 4, -10, 17, -9), 0, 0.7534024126639485)
((-3, 1, 0, 0, 4, -10, 17, -9), 0, 0.754582687365758)
((-3, 1, 0, 0, 4, -10, 17, -9), 0, 0.755527477308221)
((-3, 1, 0, 0, 4, -10, 17, -9), 0, 0.7575943834889263)
((-6, -5, 0, -1, -2, -5, 7, -4), 0, 0.7596133944643406)
((-6, -5, 0, -1, -2, -5, 7, -4), 0, 0.7604156391529618)
((-6, -5, 0, -1, -2, -5, 7, -4), 0, 0.7614619213161602)
((-6, -5, 0, -1, -2, -5, 7, -4), 0, 0.7631576396558616)
((-6, -5, 0, -1, -2, -5, 7, -4), 0, 0.7642096236292135)
((-6, -5, 0, -1, -2, -5, 7, -4), 0, 0.7654395040793601)
((-5, -1, -3, -5, 1, -16, -7, -6), 0, 0.7663854343838539)
((-3, -19, -4, 1, -8, 3, -8, 9), 0, 0.7671962317877057)
((-3, -19, -4, 1, -8, 3, -8, 9), 0, 0.7686062894387081)
((-3, -19, -4, 1, -8, 3, -8, 9), 0, 0.76951059652908)
((-3, -19, -4, 1, -8, 3, -8, 9), 0, 0.7704314388688978)
((-3, -19, -4, 1, -8, 3, -8, 9), 0, 0.7715050897208336)
((-3, -19, -4, 1, -8, 3, -8, 9), 0, 0.7733342304181309)
((-3, -19, -4, 1, -8, 3, -8, 9), 0, 0.774490557517295)
((-3, -19, -4, 1, -8, 3, -8, 9), 0, 0.7754929357423102)
((-3, -19, -4, 1, -8, 3, -8, 9), 0, 0.7765751393094765)
((-3, -19, -4, 1, -8, 3, -8, 9), 0, 0.7776636148678121)
((-3, -19, -4, 1, -8, 3, -8, 9), 0, 0.7787384060817788)
((-3, -19, -4, 1, -8, 3, -8, 9), 0, 0.7800863140021063)
((-3, -19, -4, 1, -8, 3, -8, 9), 0, 0.7815340036001229)
((-4, 2, -1, 0, -8, 1, 3, -5), 0, 0.7824428721386179)
((-4, 2, -1, 0, -8, 1, 3, -5), 0, 0.783260511714654)
((-4, 2, -1, 0, -8, 1, 3, -5), 0, 0.7840536335070295)
((-4, 2, -1, 0, -8, 1, 3, -5), 0, 0.7848650010918966)
((-4, 2, -1, 0, -8, 1, 3, -5), 0, 0.7856062364118737)
((-4, 2, -1, 0, -8, 1, 3, -5), 0, 0.7868931349635568)
((-4, 2, -1, 0, -8, 1, 3, -5), 0, 0.7880437602525674)
((-4, 2, -1, 0, -8, 1, 3, -5), 0, 0.7890090767115836)
((-4, 2, -1, 0, -8, 1, 3, -5), 0, 0.7900376832633056)
((-4, 2, -1, 0, -8, 1, 3, -5), 0, 0.7910252367819212)
((-4, 2, -1, 0, -8, 1, 3, -5), 0, 0.7923320916691422)
((-4, 2, -1, 0, -8, 1, 3, -5), 0, 0.7934182865034163)
((-4, 2, -1, 0, -8, 1, 3, -5), 0, 0.794199434494469)
((-4, 2, -1, 0, -8, 1, 3, -5), 0, 0.7974352117566764)
((-3, -7, -2, -4, -21, -15, -6, 4), 0, 0.7986861889043915)
((-3, -10, -1, -6, -25, -5, -9, 11), 0, 0.7995300568071345)
((-3, -10, -1, -6, -25, -5, -9, 11), 0, 0.8002969502728031)
((-3, -10, -1, -6, -25, -5, -9, 11), 0, 0.8010832298929941)
((-3, -10, -1, -6, -25, -5, -9, 11), 0, 0.8020707834116096)
((-3, -10, -1, -6, -25, -5, -9, 11), 0, 0.8032174174335126)
((0, 2, 3, 9, 43, 5, 9, -6), 0, 0.8041719004532369)
((2, 0, 0, 1, -7, 4, -3, 2), 0, 0.805904680558937)
((2, 0, 0, 1, -7, 4, -3, 2), 0, 0.8071225872077609)
((2, 0, 0, 1, -7, 4, -3, 2), 0, 0.8083946610530445)
((2, 0, 0, 1, -7, 4, -3, 2), 0, 0.8098640175296451)
((2, 0, 0, 1, -7, 4, -3, 2), 0, 0.8129150561428736)
((2, 0, 0, 1, -7, 4, -3, 2), 0, 0.8145942392331293)
((2, 0, 0, 1, -7, 4, -3, 2), 0, 0.8157072325751257)
((2, 0, 0, 1, -7, 4, -3, 2), 0, 0.8165853113387908)
((2, 0, 0, 1, -7, 4, -3, 2), 0, 0.8177496209721701)
((-4, -5, -1, -1, 4, -3, 9, 0), 0, 0.8187930522302915)
((1, 8, -1, 0, -7, 3, -11, 5), 0, 0.8201814430027101)
((1, 8, -1, 0, -7, 3, -11, 5), 0, 0.8209968018546848)
((1, 8, -1, 0, -7, 3, -11, 5), 0, 0.8218526435587507)
((1, 8, -1, 0, -7, 3, -11, 5), 0, 0.8230340586225909)
((0, 4, -2, -1, 0, -3, 1, -4), 0, 0.8303711479283328)
((0, 4, -2, -1, 0, -3, 1, -4), 0, 0.831651774488847)
((0, 4, -2, -1, 0, -3, 1, -4), 0, 0.8328212157513646)
((0, 4, -2, -1, 0, -3, 1, -4), 0, 0.8340020606341896)
((0, 4, -2, -1, 0, -3, 1, -4), 0, 0.8349360171373607)
((0, 4, -2, -1, 0, -3, 1, -4), 0, 0.8357359811019204)
((0, 4, -2, -1, 0, -3, 1, -4), 0, 0.8365496294108491)
((0, 4, -2, -1, 0, -3, 1, -4), 0, 0.8373108210663639)
((0, 4, -2, -1, 0, -3, 1, -4), 0, 0.8380588985585253)
((0, 4, -2, -1, 0, -3, 1, -4), 0, 0.8398794865405921)
((0, 4, -2, -1, 0, -3, 1, -4), 0, 0.8410318223726486)
((0, 3, 1, 0, 9, 0, -5, -5), 0, 0.8422993347698093)
((0, 3, 1, 0, 9, 0, -5, -5), 0, 0.8435189519616793)
((0, 3, 1, 0, 9, 0, -5, -5), 0, 0.8452597146015945)
((0, 3, 1, 0, 9, 0, -5, -5), 0, 0.8464799019744799)
((0, 3, 1, 0, 9, 0, -5, -5), 0, 0.8477234667689951)
((0, 3, 1, 0, 9, 0, -5, -5), 0, 0.8487326871661947)
((0, 3, 1, 0, 9, 0, -5, -5), 0, 0.8502567810202705)
((0, 3, 1, 0, 9, 0, -5, -5), 0, 0.8511080612762134)
((0, 3, 1, 0, 9, 0, -5, -5), 0, 0.851983859315817)
((0, 3, 1, 0, 9, 0, -5, -5), 0, 0.8528910173112658)
((0, 3, 1, 0, 9, 0, -5, -5), 0, 0.8536271210021046)
((0, 3, 1, 0, 9, 0, -5, -5), 0, 0.8543609439688818)
((0, 3, 1, 0, 9, 0, -5, -5), 0, 0.8555047270857079)
((-2, -2, -1, -1, 11, -5, -5, 8), 0, 0.8566855719685329)
((-2, -2, -1, -1, 11, -5, -5, 8), 0, 0.8575807561626589)
((-2, -2, -1, -1, 11, -5, -5, 8), 0, 0.8585665991382284)
((-2, -2, -1, -1, 11, -5, -5, 8), 0, 0.8600388065199058)
((-2, -2, -1, -1, 11, -5, -5, 8), 0, 0.8626827358881625)
((-2, -2, -1, -1, 11, -5, -5, 8), 0, 0.8643841560380174)
((-2, 2, -2, -1, -9, -3, -1, 2), 0, 0.8652930245765124)
((-2, 2, -2, -1, -9, -3, -1, 2), 0, 0.8660969798081797)
((-2, 2, -2, -1, -9, -3, -1, 2), 0, 0.8670526031899347)
((-2, 2, -2, -1, -9, -3, -1, 2), 0, 0.8678725234900324)
((-2, 2, -2, -1, -9, -3, -1, 2), 0, 0.8686599434722542)
((-2, 2, -2, -1, -9, -3, -1, 2), 0, 0.8700164041078121)
((-2, 2, -2, -1, -9, -3, -1, 2), 0, 0.8711305378118391)
((-2, 2, -2, -1, -9, -3, -1, 2), 0, 0.8720080463944888)
((-2, 2, -2, -1, -9, -3, -1, 2), 0, 0.8728450721250476)
((-2, 2, -2, -1, -9, -3, -1, 2), 0, 0.873629071021177)
((-2, 2, -2, -1, -9, -3, -1, 2), 0, 0.8743971048488763)
((-2, 2, -2, -1, -9, -3, -1, 2), 0, 0.8752848766898027)
((-2, 2, -2, -1, -9, -3, -1, 2), 0, 0.8763112025174632)
((-2, 2, -2, -1, -9, -3, -1, 2), 0, 0.8775479251397942)
((-2, -5, -2, -2, -8, -4, -2, -2), 0, 0.8804946206272105)
((1, -1, -1, 3, 11, 0, -3, -9), 0, 0.8819440207682733)
((1, -1, -1, 3, 11, 0, -3, -9), 0, 0.8828186784458462)
((1, -1, -1, 3, 11, 0, -3, -9), 0, 0.8834738164325028)
((1, -1, -1, 3, 11, 0, -3, -9), 0, 0.8844174660129351)
((1, -1, -1, 3, 11, 0, -3, -9), 0, 0.8857762073725546)
((-1, -1, -2, -15, 0, -3, -1, -3), 0, 0.8868430160523061)
((-1, -1, -2, -15, 0, -3, -1, -3), 0, 0.8876310062155433)
((-1, -1, -2, -15, 0, -3, -1, -3), 0, 0.8884868479196091)
((-1, -1, -2, -15, 0, -3, -1, -3), 0, 0.8897674744801232)
((-1, -1, -2, -15, 0, -3, -1, -3), 0, 0.8906147634689585)
((-1, -1, -2, -15, 0, -3, -1, -3), 0, 0.8913810867536117)
((-1, -1, -2, -15, 0, -3, -1, -3), 0, 0.8924986415437309)
((-1, -1, -2, -15, 0, -3, -1, -3), 0, 0.8937239605457544)
((-1, -1, -2, -15, 0, -3, -1, -3), 0, 0.8952623089252145)
((-1, -1, -2, -15, 0, -3, -1, -3), 0, 0.8990722584698965)
((-1, -1, -2, -15, 0, -3, -1, -3), 0, 0.9005530185668044)
((-1, -1, -2, -15, 0, -3, -1, -3), 0, 0.9015770636704035)
((-1, -1, -6, -12, 1, -2, -3, -3), 0, 0.9026039596790794)
((-1, -1, -6, -12, 1, -2, -3, -3), 0, 0.9035076965884359)
((-1, -1, -6, -12, 1, -2, -3, -3), 0, 0.9043430117759486)
((-1, -1, -6, -12, 1, -2, -3, -3), 0, 0.9050631503983569)
((-1, -1, -6, -12, 1, -2, -3, -3), 0, 0.9058311842260562)
((-1, -1, -6, -12, 1, -2, -3, -3), 0, 0.9066351394577237)
((-1, -1, -6, -12, 1, -2, -3, -3), 0, 0.9077065095855982)
((-1, -1, -6, -12, 1, -2, -3, -3), 0, 0.9089717412586974)
((-1, -1, -6, -12, 1, -2, -3, -3), 0, 0.9098560920135316)
((-1, -1, -6, -12, 1, -2, -3, -3), 0, 0.9113562382649619)
((-1, -1, -6, -12, 1, -2, -3, -3), 0, 0.9136631906531366)
((-1, -1, -6, -12, 1, -2, -3, -3), 0, 0.9155464985468936)
((-2, 0, 2, -1, 1, 11, -5, -2), 0, 0.9176242381668909)
((-2, 0, 2, -1, 1, 11, -5, -2), 0, 0.9187360911468564)
((-2, 0, 2, -1, 1, 11, -5, -2), 0, 0.9195520201798465)
((-2, 0, 2, -1, 1, 11, -5, -2), 0, 0.9204483447360033)
((-2, -7, -4, -31, 2, 1, -1, -1), 0, 0.9237884651240229)
((-2, -7, -4, -31, 2, 1, -1, -1), 0, 0.9249140024483573)
((-2, -7, -4, -31, 2, 1, -1, -1), 0, 0.9256786151899643)
((-2, -7, -4, -31, 2, 1, -1, -1), 0, 0.9297457163725767)
((-2, -7, -4, -31, 2, 1, -1, -1), 0, 0.9317213935908233)
((-2, -7, -4, -31, 2, 1, -1, -1), 0, 0.9338875112682024)
((-2, -7, -4, -31, 2, 1, -1, -1), 0, 0.9349583112150615)
((-2, -7, -4, -31, 2, 1, -1, -1), 0, 0.9365918798240878)
((-2, -7, -4, -31, 2, 1, -1, -1), 0, 0.937867944936479)
((-3, -5, -7, -11, -27, -4, -6, 0), 0, 0.9388509370069716)
((-2, -3, -4, 13, -11, -44, -7, -3), 0, 0.9396776994792537)
((-2, -3, -4, 13, -11, -44, -7, -3), 0, 0.9405557782429188)
((-2, -3, -4, 13, -11, -44, -7, -3), 0, 0.9414002163266773)
((-2, -3, -4, 13, -11, -44, -7, -3), 0, 0.942142592008685)
((-2, -3, -4, 13, -11, -44, -7, -3), 0, 0.9429533894125368)
((-2, -3, -4, 13, -11, -44, -7, -3), 0, 0.9437351075846049)
((-2, -3, -4, 13, -11, -44, -7, -3), 0, 0.9448937154078305)
((-2, -3, -4, 13, -11, -44, -7, -3), 0, 0.9463642122464618)
((-2, -3, -4, 13, -11, -44, -7, -3), 0, 0.9480935712660699)
((-1, 1, -2, -15, 36, 37, 4, 0), 0, 0.9493148990009859)
((2, 7, 9, 18, 2, -8, 3, -2), 0, 0.9504410065063356)
((2, 7, 9, 18, 2, -8, 3, -2), 0, 0.9515043940999949)
((2, 7, 9, 18, 2, -8, 3, -2), 0, 0.9525261584795325)
((2, 7, 9, 18, 2, -8, 3, -2), 0, 0.9538820489340751)
((2, 7, 9, 18, 2, -8, 3, -2), 0, 0.9547122324924494)
((2, 7, 9, 18, 2, -8, 3, -2), 0, 0.9557043474591879)
((2, 7, 9, 18, 2, -8, 3, -2), 0, 0.9565955403862064)
((2, 7, 9, 18, 2, -8, 3, -2), 0, 0.9575220845361777)
((2, 7, 9, 18, 2, -8, 3, -2), 0, 0.9582741532954467)
((2, 7, 9, 18, 2, -8, 3, -2), 0, 0.9590233711496389)
((2, 7, 9, 18, 2, -8, 3, -2), 0, 0.9600035123150547)
((-3, 0, 3, -28, -6, 42, 8, -2), 0, 0.9610115923502234)
((1, 0, -3, 28, -1, -4, -1, 2), 0, 0.9626679681998644)
((1, 0, -3, 28, -1, -4, -1, 2), 0, 0.9637279347074316)
((1, 0, -3, 28, -1, -4, -1, 2), 0, 0.9652628620007994)
((1, 0, -3, 28, -1, -4, -1, 2), 0, 0.9661563356518794)
((1, 0, -3, 28, -1, -4, -1, 2), 0, 0.9685573679075896)
((1, 0, -3, 28, -1, -4, -1, 2), 0, 0.9695694392098659)
((1, 0, -3, 28, -1, -4, -1, 2), 0, 0.970424140551901)
((1, 0, -3, 28, -1, -4, -1, 2), 0, 0.9712708593597209)
((1, 0, -3, 28, -1, -4, -1, 2), 0, 0.9721227097966791)
((1, 0, -3, 28, -1, -4, -1, 2), 0, 0.9729768409576989)
((1, 0, -3, 28, -1, -4, -1, 2), 0, 0.9738121561452114)
((1, 0, -3, 28, -1, -4, -1, 2), 0, 0.9750448875004347)
((1, 0, -3, 28, -1, -4, -1, 2), 0, 0.9760107741404663)
((0, -4, -3, -4, 5, -7, 0, -2), 0, 0.9769538535398833)
((0, -4, -3, -4, 5, -7, 0, -2), 0, 0.9783604901047935)
((0, -4, -3, -4, 5, -7, 0, -2), 0, 0.9795316419103572)
((0, -4, -3, -4, 5, -7, 0, -2), 0, 0.9812906503427643)
((-2, -10, -11, -16, -49, -31, -10, -3), 0, 0.9839756327441272)
((-3, 3, 0, 1, 60, 20, 3, 2), 0, 0.9850772224658162)
((-3, 3, 0, 1, 60, 20, 3, 2), 0, 0.9858697740771762)
((-3, 3, 0, 1, 60, 20, 3, 2), 0, 0.9865853512514619)
((-3, 3, 0, 1, 60, 20, 3, 2), 0, 0.9873704905096221)
((-3, 3, 0, 1, 60, 20, 3, 2), 0, 0.988374009096668)
((-3, 3, 0, 1, 60, 20, 3, 2), 0, 0.9893148077720234)
((-3, 3, 0, 1, 60, 20, 3, 2), 0, 0.9903314405224226)
((-3, 3, 0, 1, 60, 20, 3, 2), 0, 0.9911684662529814)
((-3, 3, 0, 1, 60, 20, 3, 2), 0, 0.9919644389504336)
((-3, 3, 0, 1, 60, 20, 3, 2), 0, 0.9927803679834237)
((-3, 3, 0, 1, 60, 20, 3, 2), 0, 0.993932133634465)
((-3, 3, 0, 1, 60, 20, 3, 2), 0, 0.9951945144024874)
((-3, 3, 0, 1, 60, 20, 3, 2), 0, 0.996233384212486)
((-3, 3, 0, 1, 60, 20, 3, 2), 0, 0.9976822141725333)
((-3, 3, 0, 1, 60, 20, 3, 2), 0, 0.9994332400707252)
((-1, -2, -5, -10, 17, 15, -1, -4), 0, 1.0010702297658438)
((-1, -2, -5, -10, 17, 15, -1, -4), 0, 1.002991169606615)
((-1, -2, -5, -10, 17, 15, -1, -4), 0, 1.0037934142952363)
((-1, -2, -5, -10, 17, 15, -1, -4), 0, 1.0047650027454216)
((-1, -2, -5, -10, 17, 15, -1, -4), 0, 1.0058945313368635)
((-1, -1, 4, 14, -1, -11, -2, -2), 0, 1.0068792339504022)
((-1, -1, 4, 14, -1, -11, -2, -2), 0, 1.007709987689792)
((-1, -1, 4, 14, -1, -11, -2, -2), 0, 1.0085418817912122)
((-1, -1, 4, 14, -1, -11, -2, -2), 0, 1.0093007927226656)
((-1, -1, 4, 14, -1, -11, -2, -2), 0, 1.0101024672302716)
((-1, -1, 4, 14, -1, -11, -2, -2), 0, 1.0125987197155482)
((-1, -1, 4, 14, -1, -11, -2, -2), 0, 1.0137550468147123)
((-1, -1, 4, 14, -1, -11, -2, -2), 0, 1.0153481325716476)
((-1, -1, 4, 14, -1, -11, -2, -2), 0, 1.0168055152469255)
((-1, -1, 4, 14, -1, -11, -2, -2), 0, 1.0181842129420828)
((-1, -1, 4, 14, -1, -11, -2, -2), 0, 1.020038441604056)
((-3, 4, 7, 18, 15, -8, -4, -1), 0, 1.0219348636611665)
((-2, -4, -9, -20, 5, 7, 2, 1), 0, 1.0237605832723715)
((-2, -4, -9, -20, 5, 7, 2, 1), 0, 1.02604244769587)
((-2, -4, -9, -20, 5, 7, 2, 1), 0, 1.0278407986183373)
((-4, -8, -7, -7, -20, -10, -3, -2), 0, 1.0292280490287251)
((1, 2, -1, -2, -51, -4, 2, 0), 0, 1.0321947008516794)
((1, 2, -1, -2, -51, -4, 2, 0), 0, 1.0335152400832692)
((1, 2, -1, -2, -51, -4, 2, 0), 0, 1.035506882369946)
((1, 2, -1, -2, -51, -4, 2, 0), 0, 1.0379501080207933)
((1, 2, -1, -2, -51, -4, 2, 0), 0, 1.0391931026342933)
((1, 2, -1, -2, -51, -4, 2, 0), 0, 1.0409583830578695)
((1, 2, -1, -2, -51, -4, 2, 0), 0, 1.0417634786515675)
((1, 2, -1, -2, -51, -4, 2, 0), 0, 1.0428753316315331)
((-2, -2, -5, 3, 24, -16, -4, -3), 0, 1.0438258233841498)
((-4, -4, -2, -3, -13, 1, -4, -3), 0, 1.0450557038342962)
((-4, -4, -2, -3, -13, 1, -4, -3), 0, 1.0460335642756506)
((-4, -4, -2, -3, -13, 1, -4, -3), 0, 1.0468569056618404)
((-4, -4, -2, -3, -13, 1, -4, -3), 0, 1.0476038427919712)
((-4, -4, -2, -3, -13, 1, -4, -3), 0, 1.0486375809728314)
((-4, -4, -2, -3, -13, 1, -4, -3), 0, 1.0503179044251179)
((-4, -4, -2, -3, -13, 1, -4, -3), 0, 1.0517416464204892)
((-4, -4, -2, -3, -13, 1, -4, -3), 0, 1.0527896391267335)
((-4, -4, -2, -3, -13, 1, -4, -3), 0, 1.0551154074884153)
((-4, -4, -2, -3, -13, 1, -4, -3), 0, 1.056227260468381)
((-4, -4, -2, -3, -13, 1, -4, -3), 0, 1.0571201639384455)
((-4, -4, -2, -3, -13, 1, -4, -3), 0, 1.058290745562994)
((-2, -4, -5, -12, -37, -4, -3, -3), 0, 1.0598598837172837)
((-2, -4, -5, -12, -37, -4, -3, -3), 0, 1.060817217642085)
((-2, -4, -5, -12, -37, -4, -3, -3), 0, 1.0621622746573354)
((-2, -4, -5, -12, -37, -4, -3, -3), 0, 1.0629223259508196)
((-2, -4, -5, -12, -37, -4, -3, -3), 0, 1.0637331233546714)
((-2, -4, -5, -12, -37, -4, -3, -3), 0, 1.0645085695355705)
((-2, -4, -5, -12, -37, -4, -3, -3), 0, 1.0657800731998388)
((0, -2, -3, 9, 18, 4, -1, 0), 0, 1.067107454603613)
((0, -2, -3, 9, 18, 4, -1, 0), 0, 1.0700524395479833)
((0, -2, -3, 9, 18, 4, -1, 0), 0, 1.071296574523514)
((0, -2, -3, 9, 18, 4, -1, 0), 0, 1.0722162765013008)
((0, -2, -3, 9, 18, 4, -1, 0), 0, 1.073349226178835)
((0, -2, -3, 9, 18, 4, -1, 0), 0, 1.0742415594678842)
((0, -2, -3, 9, 18, 4, -1, 0), 0, 1.0751418752911486)
((0, -2, -3, 9, 18, 4, -1, 0), 0, 1.076012541701614)
((0, -2, -3, 9, 18, 4, -1, 0), 0, 1.076747505030422)
((0, -2, -3, 9, 18, 4, -1, 0), 0, 1.077836550769773)
((0, -2, -3, 9, 18, 4, -1, 0), 0, 1.079250599687883)
((0, -2, -3, 9, 18, 4, -1, 0), 0, 1.0803060047473272)
((-4, -3, -7, -18, -21, 0, -1, -1), 0, 1.0813340411180337)
((0, 4, 4, -1, -5, -1, 0, 0), 0, 1.0822126900627143)
((0, 4, 4, -1, -5, -1, 0, 0), 0, 1.083227042089052)
((0, 4, 4, -1, -5, -1, 0, 0), 0, 1.084243104658436)
((0, 4, 4, -1, -5, -1, 0, 0), 0, 1.0853441241991095)
((0, 4, 4, -1, -5, -1, 0, 0), 0, 1.086342511157017)
((0, 4, 4, -1, -5, -1, 0, 0), 0, 1.0893342509446473)
((0, 4, 4, -1, -5, -1, 0, 0), 0, 1.0906228600393768)
((-2, -2, -5, -19, -28, -6, -3, -4), 0, 1.0918806793592761)
((-2, -2, -5, -19, -28, -6, -3, -4), 0, 1.093062664604132)
((-2, -2, -5, -19, -28, -6, -3, -4), 0, 1.0940040334605028)
((-2, -2, -5, -19, -28, -6, -3, -4), 0, 1.09542948599892)
((-2, -2, -5, -19, -28, -6, -3, -4), 0, 1.0967158143695879)
((-2, -2, -5, -19, -28, -6, -3, -4), 0, 1.0975881913230994)
((-2, -2, -5, -19, -28, -6, -3, -4), 0, 1.0988443000999528)
((-2, -2, -5, -19, -28, -6, -3, -4), 0, 1.0999418985545342)
((-2, -2, -5, -19, -28, -6, -3, -4), 0, 1.1008159860510915)
((-2, -2, -5, -19, -28, -6, -3, -4), 0, 1.1017858639582307)
((-2, -2, -5, -19, -28, -6, -3, -4), 0, 1.1033954849646117)
((-4, -1, -4, -4, -3, -2, -3, -1), 0, 1.1048585694500432)
((-4, -1, -4, -4, -3, -2, -3, -1), 0, 1.1062321355160623)
((-4, -1, -4, -4, -3, -2, -3, -1), 0, 1.1078280721780744)
((-4, -1, -4, -4, -3, -2, -3, -1), 0, 1.1086126412552193)
((-4, -1, -4, -4, -3, -2, -3, -1), 0, 1.1097541436479839)
((-4, -1, -4, -4, -3, -2, -3, -1), 0, 1.1114549936168234)
((-4, -1, -4, -4, -3, -2, -3, -1), 0, 1.1125811011221733)
((-4, -1, -4, -4, -3, -2, -3, -1), 0, 1.1135401455900205)
((-4, -1, -4, -4, -3, -2, -3, -1), 0, 1.114476382817253)
((-4, -1, -4, -4, -3, -2, -3, -1), 0, 1.1152757766007975)
((-4, -1, -4, -4, -3, -2, -3, -1), 0, 1.1172902261280888)
((-4, -1, -4, -4, -3, -2, -3, -1), 0, 1.1186769063574613)
((-1, -2, -4, -8, 19, 3, -3, -1), 0, 1.1198583214213016)
((-1, -2, -4, -8, 19, 3, -3, -1), 0, 1.1210089467103121)
((-1, -2, -4, -8, 19, 3, -3, -1), 0, 1.1222508009617813)
((-1, -2, -4, -8, 19, 3, -3, -1), 0, 1.1235496733147872)
((-1, -2, -4, -8, 19, 3, -3, -1), 0, 1.124369593614885)
((-2, -1, -1, 6, -10, -12, -3, -4), 0, 1.1287776630446869)
((-2, -1, -1, 6, -10, -12, -3, -4), 0, 1.1309836933931414)
((-2, -1, -1, 6, -10, -12, -3, -4), 0, 1.1334160856046969)
((-2, -1, -1, 6, -10, -12, -3, -4), 0, 1.1343899547789438)
((-2, -1, -1, 6, -10, -12, -3, -4), 0, 1.1353752275734978)
((-2, -1, -1, 6, -10, -12, -3, -4), 0, 1.1372477020279628)
((-2, -1, -1, 6, -10, -12, -3, -4), 0, 1.1391150448532896)
((-2, -1, -1, 6, -10, -12, -3, -4), 0, 1.140495453091493)
((-3, -3, -10, -16, 0, -3, -3, -3), 0, 1.1415736653915518)
((-3, -3, -10, -16, 0, -3, -3, -3), 0, 1.1424152525702336)
((-3, -3, -10, -16, 0, -3, -3, -3), 0, 1.1432710942742992)
((-3, -3, -10, -16, 0, -3, -3, -3), 0, 1.1445317644992756)
((-3, -3, -10, -16, 0, -3, -3, -3), 0, 1.145736556984746)
((-3, -3, -10, -16, 0, -3, -3, -3), 0, 1.1484768469445994)
((-3, -3, -10, -16, 0, -3, -3, -3), 0, 1.1496930430503771)
((3, 2, 1, -7, 16, 1, 0, 1), 0, 1.150900116259909)
((3, 2, 1, -7, 16, 1, 0, 1), 0, 1.1518905206836014)
((3, 2, 1, -7, 16, 1, 0, 1), 0, 1.153182550864423)
((3, 2, 1, -7, 16, 1, 0, 1), 0, 1.1604706046028432)
((3, 2, 1, -7, 16, 1, 0, 1), 0, 1.1625546162140095)
((3, 2, 1, -7, 16, 1, 0, 1), 0, 1.1637896282932942)
((3, 2, 1, -7, 16, 1, 0, 1), 0, 1.1647167426242808)
((3, 2, 1, -7, 16, 1, 0, 1), 0, 1.165689471436497)
((3, 2, 1, -7, 16, 1, 0, 1), 0, 1.1671422926636519)
((3, 2, 1, -7, 16, 1, 0, 1), 0, 1.1682951986767238)
((3, 2, 1, -7, 16, 1, 0, 1), 0, 1.1690666535905154)
((3, 2, 1, -7, 16, 1, 0, 1), 0, 1.1702868409634006)
((3, 2, 1, -7, 16, 1, 0, 1), 0, 1.1713741761597054)
((-4, -5, -8, -13, 5, -1, -2, -3), 0, 1.1728121726804608)
((-6, -5, -5, -7, -41, -9, -4, -2), 0, 1.1751824151613413)
((-6, -5, -5, -7, -41, -9, -4, -2), 0, 1.1766694472494184)
((-6, -5, -5, -7, -41, -9, -4, -2), 0, 1.1791571470194642)
((-6, -5, -5, -7, -41, -9, -4, -2), 0, 1.1804594404585624)
((-6, -5, -5, -7, -41, -9, -4, -2), 0, 1.18138028279838)
((-6, -5, -5, -7, -41, -9, -4, -2), 0, 1.182224150701123)
((-6, -5, -5, -7, -41, -9, -4, -2), 0, 1.1830714396899584)
((-6, -5, -5, -7, -41, -9, -4, -2), 0, 1.184817333959012)
((-6, -5, -5, -7, -41, -9, -4, -2), 0, 1.1863984459146246)
((0, 1, 3, 6, -22, -1, 0, -1), 0, 1.1875610450049576)
((0, 1, 3, 6, -22, -1, 0, -1), 0, 1.1894072911327158)
((0, 1, 3, 6, -22, -1, 0, -1), 0, 1.1906445839360622)
((0, 1, 3, 6, -22, -1, 0, -1), 0, 1.1918088935694415)
((0, 1, 3, 6, -22, -1, 0, -1), 0, 1.1934624185140057)
((1, -1, 2, 2, -30, 3, 0, -2), 0, 1.1958782754761155)
((1, -1, 2, 2, -30, 3, 0, -2), 0, 1.1981903594934284)
((1, -1, 2, 2, -30, 3, 0, -2), 0, 1.1992965106632403)
((1, -1, 2, 2, -30, 3, 0, -2), 0, 1.2001922650383818)
((1, -1, 2, 2, -30, 3, 0, -2), 0, 1.2012014854355813)
((1, -1, 2, 2, -30, 3, 0, -2), 0, 1.2021052223449378)
((1, -1, 2, 2, -30, 3, 0, -2), 0, 1.202868124543499)
((1, -1, 2, 2, -30, 3, 0, -2), 0, 1.2036988782828886)
((1, -1, 2, 2, -30, 3, 0, -2), 0, 1.2050758654349996)
((1, -1, 2, 2, -30, 3, 0, -2), 0, 1.2061643409933351)
((1, -1, 2, 2, -30, 3, 0, -2), 0, 1.2075310648871698)
((1, -1, 2, 2, -30, 3, 0, -2), 0, 1.2090950714123212)
((1, -1, 2, 2, -30, 3, 0, -2), 0, 1.2100022294077701)
((1, -1, 2, 2, -30, 3, 0, -2), 0, 1.2114322433943103)
((1, -1, 2, 2, -30, 3, 0, -2), 0, 1.2124927800828929)
((1, -1, 2, 2, -30, 3, 0, -2), 0, 1.2141827966124406)
((1, -1, 2, 2, -30, 3, 0, -2), 0, 1.2154320632171096)
((-1, 0, 0, 5, 21, 17, 3, -1), 0, 1.2164983017158457)
((-1, 0, 0, 5, 21, 17, 3, -1), 0, 1.2175810754640275)
((-1, 0, 0, 5, 21, 17, 3, -1), 0, 1.2184990668987683)
((-1, 0, 0, 5, 21, 17, 3, -1), 0, 1.219269381450529)
((-1, 0, 0, 5, 21, 17, 3, -1), 0, 1.2200898719316422)
((-1, 0, 0, 5, 21, 17, 3, -1), 0, 1.2209200554900164)
((-1, 0, 0, 5, 21, 17, 3, -1), 0, 1.221946381317677)
((-1, 0, 0, 5, 21, 17, 3, -1), 0, 1.223651222553624)
((0, 2, 1, 8, 2, -1, -4, -2), 0, 1.225141105546778)
((-1, -4, -3, -2, 15, 5, 2, 0), 0, 1.226606470756271)
((-1, -4, -3, -2, 15, 5, 2, 0), 0, 1.2282856538465265)
((-1, -4, -3, -2, 15, 5, 2, 0), 0, 1.229457946014121)
((-1, -4, -3, -2, 15, 5, 2, 0), 0, 1.230710063523867)
((0, 0, 1, 7, 15, -2, -2, -2), 0, 1.2317363893515274)
((0, 0, 1, 7, 15, -2, -2, -2), 0, 1.2329400414749672)
((0, 0, 1, 7, 15, -2, -2, -2), 0, 1.2337343036293733)
((0, 0, 1, 7, 15, -2, -2, -2), 0, 1.2346950586402665)
((0, 0, 1, 7, 15, -2, -2, -2), 0, 1.2366952536421738)
((0, 0, 1, 7, 15, -2, -2, -2), 0, 1.2380294772181324)
((0, 0, 1, 7, 15, -2, -2, -2), 0, 1.2392183046351726)
((0, 0, 1, 7, 15, -2, -2, -2), 0, 1.240384324811598)
((0, 0, 1, 7, 15, -2, -2, -2), 0, 1.2427283389657715)
((0, 0, 1, 7, 15, -2, -2, -2), 0, 1.2458221411551524)
((0, 0, 1, 7, 15, -2, -2, -2), 0, 1.2472441726074777)
((-1, -2, 0, 0, 4, 9, -1, -1), 0, 1.2483326481658132)
((-1, -2, 0, 0, 4, 9, -1, -1), 0, 1.2491554193709877)
((-1, -2, 0, 0, 4, 9, -1, -1), 0, 1.249910909216349)
((-1, -2, 0, 0, 4, 9, -1, -1), 0, 1.250706311732786)
((-1, -2, 0, 0, 4, 9, -1, -1), 0, 1.252277730611137)
((-1, -2, 0, 0, 4, 9, -1, -1), 0, 1.2534437507875624)
((-2, -1, 0, 0, 23, -5, -1, -2), 0, 1.2544119181516555)
((-2, -1, 0, 0, 23, -5, -1, -2), 0, 1.2552312682707378)
((-2, -1, 0, 0, 23, -5, -1, -2), 0, 1.256079697621604)
((-2, -1, 0, 0, 23, -5, -1, -2), 0, 1.2570940496479417)
((-2, -1, 0, 0, 23, -5, -1, -2), 0, 1.2581979200936921)
((-2, -1, 0, 0, 23, -5, -1, -2), 0, 1.2591050780891409)
((-2, -1, 0, 0, 23, -5, -1, -2), 0, 1.262556383775157)
((-2, 0, 0, -3, -2, -2, -1, -2), 0, 1.2636397277043543)
((-2, 0, 0, -3, -2, -2, -1, -2), 0, 1.2644374109448526)
((-2, 0, 0, -3, -2, -2, -1, -2), 0, 1.2653343056820248)
((-2, 0, 0, -3, -2, -2, -1, -2), 0, 1.2661747524986757)
((-2, 0, 0, -3, -2, -2, -1, -2), 0, 1.2669308125250522)
((-2, 0, 0, -3, -2, -2, -1, -2), 0, 1.2679611296198203)
((-1, -1, 0, -2, -1, 16, 2, -1), 0, 1.269119737443046)
((-1, -1, 0, -2, -1, 16, 2, -1), 0, 1.2699122890544061)
((-1, -1, 0, -2, -1, 16, 2, -1), 0, 1.2710218613103101)
((-1, -1, 0, -2, -1, 16, 2, -1), 0, 1.2720219588112638)
((-1, -1, 0, -2, -1, 16, 2, -1), 0, 1.272794554087086)
((-1, -1, 0, -2, -1, 16, 2, -1), 0, 1.2736082023960147)
((-1, -1, 0, -2, -1, 16, 2, -1), 0, 1.2746122911640758)
((-1, -1, 0, -2, -1, 16, 2, -1), 0, 1.2760651123912308)
((-1, -1, 0, -2, -1, 16, 2, -1), 0, 1.2775675393667227)
((-1, -1, 0, -2, -1, 16, 2, -1), 0, 1.280300987154392)
((-1, -1, 0, -2, -1, 16, 2, -1), 0, 1.2813552518518054)
((-1, -1, 0, -2, -1, 16, 2, -1), 0, 1.2824551310304482)
((-1, -1, 0, -2, -1, 16, 2, -1), 0, 1.2835681243724446)
((0, 2, 2, 17, 90, 9, 3, 1), 0, 1.284474712186878)
((0, 2, 2, 17, 90, 9, 3, 1), 0, 1.2853733174670963)
((0, 2, 2, 17, 90, 9, 3, 1), 0, 1.2862531067738074)
((0, 2, 2, 17, 90, 9, 3, 1), 0, 1.286996622817846)
((0, 2, 2, 17, 90, 9, 3, 1), 0, 1.2878678594093267)
((0, 2, 2, 17, 90, 9, 3, 1), 0, 1.2886706742789633)
((0, 2, 2, 17, 90, 9, 3, 1), 0, 1.2910072760799371)
((0, 2, 2, 17, 90, 9, 3, 1), 0, 1.2922622444947598)
((0, 2, 2, 17, 90, 9, 3, 1), 0, 1.2939910333333524)
((0, 2, 2, 17, 90, 9, 3, 1), 0, 1.2953708713905403)
((0, 2, 2, 17, 90, 9, 3, 1), 0, 1.296484434913552)
((0, 2, 2, 17, 90, 9, 3, 1), 0, 1.2979857215270132)
((0, 2, 2, 17, 90, 9, 3, 1), 0, 1.2989134060390153)
((-1, -2, 0, -4, -10, -7, -1, 0), 0, 1.3000794262154407)
((-1, -2, 0, -4, -10, -7, -1, 0), 0, 1.3010367601402417)
((-1, -2, 0, -4, -10, -7, -1, 0), 0, 1.301986681711843)
((-1, -2, 0, -4, -10, -7, -1, 0), 0, 1.3029765159545201)
((-1, -2, 0, -4, -10, -7, -1, 0), 0, 1.3038357787446782)
((-1, -2, 0, -4, -10, -7, -1, 0), 0, 1.3051899586561746)
((-2, -1, -4, -5, -11, -3, -2, -1), 0, 1.306225407380081)
((-3, -3, -6, -3, -23, -10, -3, -3), 0, 1.307061292748609)
((-3, -3, -6, -3, -23, -10, -3, -3), 0, 1.3078766516005835)
((-3, -3, -6, -3, -23, -10, -3, -3), 0, 1.309289560156663)
((-3, -3, -6, -3, -23, -10, -3, -3), 0, 1.3119106822843047)
((-3, -3, -6, -3, -23, -10, -3, -3), 0, 1.314020922222178)
((-3, -3, -6, -3, -23, -10, -3, -3), 0, 1.3150922923500523)
((-3, -3, -6, -3, -23, -10, -3, -3), 0, 1.3158751508841513)
((-3, -3, -6, -3, -23, -10, -3, -3), 0, 1.3167116064336946)
((-3, -3, -6, -3, -23, -10, -3, -3), 0, 1.3178479771973208)
((-3, -3, -6, -3, -23, -10, -3, -3), 0, 1.3196189594310506)
((-3, -3, -6, -3, -23, -10, -3, -3), 0, 1.3211567376294953)
((0, 4, 4, 22, 34, 10, 2, 0), 0, 1.3222355201105696)
((0, 0, -2, 0, 5, -1, 0, -2), 0, 1.3230765371082358)
((0, 0, -2, 0, 5, -1, 0, -2), 0, 1.323875360710765)
((0, 0, -2, 0, 5, -1, 0, -2), 0, 1.3247648430947372)
((0, 0, -2, 0, 5, -1, 0, -2), 0, 1.3257124839422771)
((0, 0, -2, 0, 5, -1, 0, -2), 0, 1.3268551266970725)
((-1, -1, 0, -3, -8, 6, -3, -1), 0, 1.329670110369939)
((-1, -1, 0, -3, -8, 6, -3, -1), 0, 1.3314758736456063)
((-1, -1, 0, -3, -8, 6, -3, -1), 0, 1.332483953680775)
((-1, -1, 0, -3, -8, 6, -3, -1), 0, 1.336613774775078)
((-1, -1, 0, -3, -8, 6, -3, -1), 0, 1.337549441821295)
((-1, -1, 0, -3, -8, 6, -3, -1), 0, 1.3389783154458046)
((-1, -1, 0, -3, -8, 6, -3, -1), 0, 1.3398067884611327)
((-1, -1, 0, -3, -8, 6, -3, -1), 0, 1.3406466650967683)
((-1, -1, 0, -3, -8, 6, -3, -1), 0, 1.3414010145800987)
((-1, -1, 0, -3, -8, 6, -3, -1), 0, 1.342434752760959)
((-1, -1, 0, -3, -8, 6, -3, -1), 0, 1.3442935428710552)
((-2, 1, 0, 0, -11, -2, -2, -2), 0, 1.345813075277008)
((-2, 1, 0, 0, -11, -2, -2, -2), 0, 1.346911243912605)
((-2, 1, 0, 0, -11, -2, -2, -2), 0, 1.3484433203008959)
((-2, 1, 0, 0, -11, -2, -2, -2), 0, 1.349605919391229)
((-2, 1, 0, 0, -11, -2, -2, -2), 0, 1.3505860605566449)
((-2, 1, 0, 0, -11, -2, -2, -2), 0, 1.35146413932031)
((-2, 1, 0, 0, -11, -2, -2, -2), 0, 1.3526084926181514)
((-2, 1, 0, 0, -11, -2, -2, -2), 0, 1.3536929769093795)
((-2, 1, 0, 0, -11, -2, -2, -2), 0, 1.3545602222337525)
((-2, 1, 0, 0, -11, -2, -2, -2), 0, 1.3553858443440039)
((-2, 1, 0, 0, -11, -2, -2, -2), 0, 1.3561823872224714)
((-2, 1, 0, 0, -11, -2, -2, -2), 0, 1.3570479220037985)
((-2, 1, 0, 0, -11, -2, -2, -2), 0, 1.358448856758555)
((-3, -3, -4, -6, -1, -2, 0, 0), 0, 1.3595555781093824)
((-3, -3, -4, -6, -1, -2, 0, 0), 0, 1.360815107972328)
((-3, -3, -4, -6, -1, -2, 0, 0), 0, 1.3622337183385609)
((-3, -3, -4, -6, -1, -2, 0, 0), 0, 1.3633347378792344)
((-3, -3, -4, -6, -1, -2, 0, 0), 0, 1.364297203433174)
((-3, -3, -4, -6, -1, -2, 0, 0), 0, 1.3659016928104166)
((0, -2, 0, -10, 9, 5, 2, 1), 0, 1.367871098037494)
((0, -2, 0, -10, 9, 5, 2, 1), 0, 1.3687081237680527)
((0, -2, 0, -10, 9, 5, 2, 1), 0, 1.3698034414985725)
((0, -2, 0, -10, 9, 5, 2, 1), 0, 1.370842311308571)
((0, -2, 0, -10, 9, 5, 2, 1), 0, 1.3716662228757763)
((0, -2, 0, -10, 9, 5, 2, 1), 0, 1.372994174460566)
((0, -2, 0, -10, 9, 5, 2, 1), 0, 1.373971464720905)
((0, -2, 0, -10, 9, 5, 2, 1), 0, 1.3749191055684449)
((0, -2, 0, -10, 9, 5, 2, 1), 0, 1.3757452978597116)
((0, -2, 0, -10, 9, 5, 2, 1), 0, 1.377823607660724)
((0, -2, 0, -10, 9, 5, 2, 1), 0, 1.3791361643580988)
((0, -2, 0, -10, 9, 5, 2, 1), 0, 1.3804658264859344)
((0, -1, -4, -7, -7, -12, -5, -4), 0, 1.3823759328874137)
((0, -1, -4, -7, -7, -12, -5, -4), 0, 1.3834222150506121)
((0, -1, -4, -7, -7, -12, -5, -4), 0, 1.3842404248076636)
((0, -1, -4, -7, -7, -12, -5, -4), 0, 1.3850495116684693)
((0, -1, -4, -7, -7, -12, -5, -4), 0, 1.3858392123747527)
((0, -1, -4, -7, -7, -12, -5, -4), 0, 1.387558308136084)
((0, -1, -4, -7, -7, -12, -5, -4), 0, 1.3887710831557694)
((-1, 0, 1, 3, 2, -8, 3, 13), 0, 1.3898458743697362)
((-1, 0, 1, 3, 2, -8, 3, 13), 0, 1.390661233221711)
((-1, 0, 1, 3, 2, -8, 3, 13), 0, 1.391547294519591)
((-1, 0, 1, 3, 2, -8, 3, 13), 0, 1.3924242329212255)
((-1, 0, 1, 3, 2, -8, 3, 13), 0, 1.3931705998703408)
((-1, 0, 1, 3, 2, -8, 3, 13), 0, 1.394034994289637)
((-1, 0, 1, 3, 2, -8, 3, 13), 0, 1.395330445556551)
((-1, 0, 1, 3, 2, -8, 3, 13), 0, 1.3974674840021462)
((-1, 0, 1, 3, 2, -8, 3, 13), 0, 1.3988267955427809)
((-1, 0, 1, 3, 2, -8, 3, 13), 0, 1.4025734549947573)
((-1, 0, 1, 3, 2, -8, 3, 13), 0, 1.4043934727958085)
((0, 1, 2, 7, 5, 6, 0, -3), 0, 1.405670108089215)
((0, 1, 2, 7, 5, 6, 0, -3), 0, 1.4069096816166229)
((0, 1, 2, 7, 5, 6, 0, -3), 0, 1.4077826287511497)
((0, 1, 2, 7, 5, 6, 0, -3), 0, 1.4085461011307259)
((0, 1, 2, 7, 5, 6, 0, -3), 0, 1.4093740039650389)
((0, 1, 2, 7, 5, 6, 0, -3), 0, 1.4109209050597293)
((0, 1, 2, 7, 5, 6, 0, -3), 0, 1.412109162295754)
((0, 1, 2, 7, 5, 6, 0, -3), 0, 1.413101847443508)
((0, 1, 2, 7, 5, 6, 0, -3), 0, 1.414093392229231)
((0, 1, 2, 7, 5, 6, 0, -3), 0, 1.4150062520348334)
((0, 1, 2, 7, 5, 6, 0, -3), 0, 1.4165713989220157)
((0, 1, 2, 7, 5, 6, 0, -3), 0, 1.4218484242192369)
((0, 2, 4, 7, -1, 16, 6, 0), 0, 1.423296683998269)
((0, 2, 4, 7, -1, 16, 6, 0), 0, 1.4245060379318621)
((-9, -8, -10, -18, -48, -40, -28, -20), 0, 1.4271693534546412)
((-9, -8, -10, -18, -48, -40, -28, -20), 0, 1.429456349507278)
((-9, -8, -10, -18, -48, -40, -28, -20), 0, 1.430463289180416)
((-9, -8, -10, -18, -48, -40, -28, -20), 0, 1.4317912407652058)
((2, 0, -2, -10, 10, 5, -15, 0), 0, 1.4559857317902714)
((4, 2, -1, -4, -2, 22, 22, 35), 0, 1.4755999587188944)
((-12, -2, -5, 0, -6, -15, -23, -23), 0, 1.495856779651836)
((-18, -12, -8, 4, -25, -23, -43, -8), 0, 1.5150160021301964)
((30, 3, 4, 3, 4, 6, -31, -48), 0, 1.5365158176766378)
((-13, -16, -9, 0, -11, 9, -55, -53), 0, 1.5649849557739095)
((-9, -13, -10, -4, -16, 28, 85, 9), 0, 1.5861637594086995)
((-3, -9, -11, -12, 2, 2, 29, 28), 1, 1.6080980528888507)
((11, 12, 11, 28, 10, 4, 70, 43), 1, 1.6331637805053971)
((-6, -1, 0, 28, 9, -6, 6, -1), 1, 1.6549994326698898)
((2, -9, 0, 2, -18, -5, 8, 8), 1, 1.6754341500796257)
((5, 9, 5, -9, 6, -8, -24, 9), 1, 1.6973815577231304)
((-1, -20, -11, 3, -35, -7, -14, -16), 1, 1.7196876092253008)
((7, -1, -4, -11, 0, 25, -35, -6), 1, 1.7396068829971452)
((-4, -1, 1, 1, -4, -26, 17, 15), 1, 1.7635168536955428)
((2, -5, -7, 12, -21, -5, -32, -19), 1, 1.7881247259567494)
((11, -7, -1, -1, -5, -4, -39, 9), 1, 1.8065985908546387)
((0, 4, 0, -6, 10, 5, -13, 2), 1, 1.8268440081672728)
((15, 2, 4, -6, -14, -7, -22, -7), 1, 1.8501815171262421)
((5, 0, -3, 7, -6, 9, -3, 14), 1, 1.8726660352862223)
((-6, -4, 0, -22, 9, -6, -20, 10), 1, 1.8918303893937207)
((-8, -3, -1, 2, 9, 6, 10, -14), 1, 1.9112108421060434)
((-5, 0, -3, -13, -9, 3, -3, -5), 1, 1.9309784477278003)
((-3, -1, -3, -21, 2, -6, -9, 16), 1, 1.9527177393006958)
((5, -1, 0, 7, -1, -1, -1, -2), 1, 1.9717475306885677)
((-1, 0, -1, 0, 2, -6, 14, -6), 1, 1.991994658544248)
((-6, 1, 2, 3, 2, -2, 40, -2), 1, 2.012762931847974)
((-1, 5, 4, 2, -1, 6, 9, 7), 1, 2.033194798352633)
((-5, 0, -3, 9, 2, -6, -8, -8), 1, 2.0557312029850117)
((-2, 2, -5, -17, -7, -4, -10, 0), 1, 2.075304376880528)
((-1, -11, -5, 0, -2, -3, 0, -5), 1, 2.096166159870774)
((-1, -1, -2, 13, 5, -3, -2, -3), 1, 2.115317399814919)
((-5, 4, 1, 6, 4, 0, -15, 0), 1, 2.1352754458958088)
((0, -4, 0, 4, 0, -2, -2, 10), 1, 2.1579367201705524)
((1, 2, -1, -8, -4, 6, -25, 2), 1, 2.1840145190893754)
((0, -3, -5, -6, -5, -2, -12, -1), 1, 2.2040700661238923)
((0, -2, -1, -1, -4, -5, 3, -5), 1, 2.224072016142965)
((-1, -8, -5, -20, -5, 2, 16, 4), 1, 2.2446658140559883)
((0, -3, 0, 0, -6, -7, -3, -1), 1, 2.2655606675451256)
((-1, -2, 1, 9, 1, 7, -5, 11), 1, 2.2846109854495507)
((-5, 1, 2, -14, 1, 2, 2, 11), 1, 2.3061729507266673)
((-5, -6, -2, 12, 0, -6, -24, -8), 1, 2.3249176516068557)
((-1, 1, -2, -7, 1, 6, 2, -1), 1, 2.3456500035066132)
((0, -6, -3, -10, -7, -5, 34, 1), 1, 2.3686328598740243)
((-2, -6, 0, -21, -7, -5, -12, -5), 1, 2.3891097706788975)
((5, 3, 2, 15, 7, 10, 0, 16), 1, 2.412391972079376)
((-1, 0, -5, -15, -6, -8, -8, 2), 1, 2.4324292733214015)
((-2, -15, -1, 5, -2, 3, -10, -11), 1, 2.452664427375759)
((-2, 1, -3, 0, -2, -2, 5, 14), 1, 2.476386808520101)
((-2, 0, -1, 6, -1, -3, -1, -1), 1, 2.4974390319694795)
((0, 1, 0, 1, 3, 9, 31, 0), 1, 2.516760185856204)
((-1, 1, -2, -3, -2, -1, -6, -8), 1, 2.5357717314515837)
((0, -2, -4, -7, -7, -4, -3, 9), 1, 2.5552394218592576)
((-2, -4, -3, -21, -2, -5, -5, -2), 1, 2.5818315240539413)
((-2, 1, -1, 11, 2, -3, 11, -4), 1, 2.60098846580824)
((-3, -4, -3, 0, -1, 0, 2, 4), 1, 2.620088389461002)
((4, 1, -2, -17, -5, -2, 10, -4), 1, 2.639852003815651)
((0, -2, 1, 20, 4, -4, -6, -22), 1, 2.6595762756802404)
((-4, -1, -2, -5, 0, 0, -14, 3), 1, 2.683102514555296)
((-2, -6, -1, -2, 2, -4, -25, -5), 1, 2.702969901854742)
((-5, 0, -5, -16, -2, -3, -55, -9), 1, 2.7220532902580583)
((-10, -2, 5, 7, 0, 2, 24, -5), 1, 2.7423015584757695)
((-6, -6, 0, -2, -3, -1, 8, -8), 1, 2.76300768204882)
((4, 2, 2, 12, 5, 11, -8, -13), 1, 2.7868024761821135)
((-2, -2, -2, -16, -5, 0, 1, -5), 1, 2.8051280940160073)
((1, 6, 0, -3, 1, -3, 8, -7), 1, 2.8265994005116806)
((-2, -7, -1, 10, 0, -2, -1, 1), 1, 2.844025272703325)
((1, 2, -1, 1, 2, 2, -5, 8), 0, 2.8497441882874557)
((1, 2, -1, 1, 2, 2, -5, 8), 0, 2.8508891117663127)
((-1, -4, -4, 12, 0, -5, 5, -4), 0, 2.851893770715389)
((-1, -4, -4, 12, 0, -5, 5, -4), 0, 2.852776410927177)
((-1, -4, -4, 12, 0, -5, 5, -4), 0, 2.8539036587945574)
((-1, -4, -4, 12, 0, -5, 5, -4), 0, 2.8546791049754567)
((-1, -4, -4, 12, 0, -5, 5, -4), 0, 2.855643281072442)
((-1, -4, -4, 12, 0, -5, 5, -4), 0, 2.856652501469642)
((-1, -4, -4, 12, 0, -5, 5, -4), 0, 2.8578647063083116)
((-1, -4, -4, 12, 0, -5, 5, -4), 0, 2.859883147102711)
((-1, -4, -4, 12, 0, -5, 5, -4), 0, 2.8610485970981205)
((-1, -4, -4, 12, 0, -5, 5, -4), 0, 2.8618827719236024)
((-1, -4, -4, 12, 0, -5, 5, -4), 0, 2.863240943102207)
((-1, -4, -4, 12, 0, -5, 5, -4), 0, 2.8640101172919366)
((-1, -4, -4, 12, 0, -5, 5, -4), 0, 2.865146488055563)
((0, 0, -1, -5, 2, 0, 11, 38), 0, 2.8661152256006712)
((5, 5, 2, 7, -1, 5, -5, 1), 0, 2.8669744883908295)
((5, 5, 2, 7, -1, 5, -5, 1), 0, 2.8677510749337594)
((5, 5, 2, 7, -1, 5, -5, 1), 0, 2.8686080569998555)
((5, 5, 2, 7, -1, 5, -5, 1), 0, 2.8694775830482904)
((5, 5, 2, 7, -1, 5, -5, 1), 0, 2.8715473401340725)
((5, 5, 2, 7, -1, 5, -5, 1), 0, 2.8805949724859152)
((5, 5, 2, 7, -1, 5, -5, 1), 0, 2.8826390714260057)
((-1, -2, -7, -24, -6, -5, -2, 1), 0, 2.8851820787545424)
((-1, -2, -7, -24, -6, -5, -2, 1), 0, 2.8866075312929595)
((-1, -2, -7, -24, -6, -5, -2, 1), 0, 2.88780491142523)
((-4, 0, 2, 8, 4, 0, -15, -14), 0, 2.889616376511051)
((-1, -4, 0, 6, 3, -1, -19, 3), 0, 2.907238961152997)
((1, -1, -4, 3, -1, -4, -5, -14), 0, 2.92870171493344)
((7, 1, -1, -34, -7, 5, 18, 15), 0, 2.949358232758154)
((1, 0, -2, 4, 2, 2, 27, 19), 0, 2.9687392556514918)
((1, 5, 3, 3, 1, 1, -9, -9), 0, 2.9904973631978944)
((-1, -1, -1, -7, -4, 0, 4, 2), 0, 3.0120690215522723)
((-1, 0, 0, 9, 1, -3, -19, 14), 0, 3.032167332162942)
((0, -4, -4, -19, -5, -1, 2, 21), 0, 3.050262026685612)
((1, -2, -1, 6, 1, -2, -13, -9), 0, 3.0710736337465057)
((-1, 1, -1, -7, 0, -1, 5, -4), 0, 3.093772539968264)
((3, -2, -2, -6, -4, 3, 16, -2), 1, 3.1129049639389015)
((-2, -8, -2, 4, -3, -2, -14, -11), 1, 3.1320761602185847)
((-3, 1, -6, -28, -4, -3, -6, -9), 1, 3.1546148455750247)
((-4, -1, -5, -21, -5, -2, -4, -1), 1, 3.1780093726355307)
((-1, -2, 3, 12, 4, 6, 47, -5), 1, 3.198396194839976)
((-7, -3, -6, 3, -6, -7, 12, -7), 1, 3.2213836126555098)
((0, -1, 1, 1, 1, 0, 4, 43), 1, 3.240800556952816)
((-5, -3, 0, 9, 3, -2, -36, -5), 1, 3.2621361603668317)
((1, 0, 1, -18, -6, 1, 5, 17), 1, 3.284098962897751)
((2, 3, 2, 7, 5, 11, -27, 5), 1, 3.304382582338415)
((0, -1, 0, 1, 6, 1, -19, -8), 1, 3.326616220851634)
((-1, 1, 4, 16, 2, -4, -3, -17), 0, 3.347264185961117)
((2, 4, 3, -1, 3, 9, 42, 9), 0, 3.3661628357154547)
((-2, -3, -2, 4, 0, -2, 1, 6), 0, 3.387613045513559)
((-4, -3, -2, -2, -3, -7, -16, -5), 0, 3.4111027928036313)
((1, -7, -3, 0, -2, -5, -8, -2), 0, 3.432122515935134)
((-1, -1, 0, -18, -2, 4, 8, -16), 0, 3.451805164585601)
((1, -5, -3, -11, -6, -2, -2, 1), 0, 3.471220398339861)
((-1, -5, -6, -4, -3, 1, 10, -1), 1, 3.4929688128090026)
((-4, -2, -4, -8, -6, -10, -7, -4), 1, 3.512795147075342)
((2, -7, -2, -3, 1, 0, -26, 13), 1, 3.531748534207155)
((3, 2, 1, 16, -2, 1, 13, -4), 1, 3.5519996533299425)
((3, -5, -5, -5, -4, -3, -13, 4), 1, 3.5723904668014956)
((-2, -2, -2, 3, -1, -7, -39, 1), 1, 3.5960529789392237)
((-4, -5, 0, -3, 0, 0, -20, -14), 1, 3.616874849258394)
((-3, -4, -4, 10, -3, 5, -31, 4), 1, 3.6391233124780125)
((-4, -5, 1, 1, 3, -4, -14, -8), 1, 3.660615715671254)
((2, 1, -2, -7, -1, -5, -13, -4), 1, 3.6814489896107316)
((-3, -1, -2, 3, 0, -2, 6, 2), 1, 3.703481354225526)
((2, -1, -1, -4, -3, 4, -2, 13), 1, 3.7254110862575542)
((-2, -2, 1, 3, 1, 0, -2, -4), 1, 3.74608584987476)
((0, 0, 1, -4, 0, 0, -7, -8), 1, 3.7661550812536455)
((-4, 1, -3, -6, -9, -4, 7, -14), 1, 3.7863018572506215)
((1, 0, -1, 0, 1, -2, -22, 13), 1, 3.809410153441413)
((1, -1, 1, 1, 0, 0, -7, 3), 1, 3.830056978188866)
((1, 2, 3, 3, 2, -1, 1, 17), 1, 3.851280255942854)
((-3, -12, -4, 1, 1, -1, 6, 0), 1, 3.8694080209644155)
((-1, 2, -2, -6, -2, -5, -4, 0), 1, 3.8892132585331867)
((-2, 0, -5, 7, 3, -3, 4, 2), 1, 3.910778644896395)
((1, 0, 5, 22, 2, 4, 21, -9), 1, 3.930473267348185)
((0, 0, -6, -21, -5, -4, 4, 16), 1, 3.950928511274474)
((-1, -2, -2, 0, -3, -1, 10, 1), 1, 3.9706932659911542)
((-2, -2, -1, -7, -2, -1, 0, -3), 1, 3.988944190112035)
((1, -2, 1, -3, 2, 2, -32, 3), 1, 4.011141907221286)
((3, -6, -7, 1, -6, -4, 11, -12), 1, 4.031486536030593)
((-1, 3, -1, -4, 0, 0, -22, -17), 1, 4.050504353617143)
((-3, 2, 1, 6, -3, -6, -25, -15), 1, 4.070143098329426)
((2, 0, 1, -2, -1, 1, 9, 2), 1, 4.0936796004627585)
((1, 1, 3, 13, -3, 3, -24, -3), 1, 4.1160888547287104)
((1, -1, 1, -10, 2, -1, -11, 0), 1, 4.135964224562372)
((0, 3, -4, -6, -8, -4, -2, -11), 1, 4.159708272585298)
((3, -2, 1, 0, -2, -1, 5, 1), 1, 4.183313196440474)
((-5, -9, 0, -1, -3, 1, -1, 1), 1, 4.204258225858964)
((-3, 1, -1, -8, -1, -6, -12, -4), 1, 4.226997614932813)
((0, 1, 0, -1, -2, -2, 8, -4), 1, 4.2491103750707735)
((0, -1, 0, 12, 2, 1, -7, -6), 1, 4.268724601999397)
((-2, -1, -3, -10, -2, -1, 6, -22), 1, 4.2887847104820365)
((-2, 1, 1, -6, 0, -1, 0, -4), 1, 4.313967325206733)
((-4, -6, -1, 2, -2, 2, 3, -1), 1, 4.3338278703339945)
((0, -1, -2, 3, 2, 1, 33, -9), 1, 4.354219824167578)
((-3, -1, 0, 1, -1, -1, 0, 1), 1, 4.373219966142651)
((1, -1, -1, 3, 0, -4, -8, -2), 1, 4.392969896152931)
((-1, 1, 0, 5, 0, 2, 3, -12), 1, 4.4166255661184755)
((-1, -1, -2, 7, 0, -5, 0, 2), 1, 4.43718857425667)
((-2, -6, 0, -2, -3, -1, 6, 1), 1, 4.457476755145456)
((-3, -5, -5, -32, -10, -4, -2, 14), 1, 4.47696782297476)
((-4, -8, 0, 10, 6, 0, -4, -2), 1, 4.496978325709063)
((-3, -4, -5, -13, -3, -3, -15, -6), 1, 4.518006601555796)
((-4, -3, -3, 4, -4, -7, -4, -11), 1, 4.539888438382533)
((-3, -3, -3, -3, -2, -2, -14, -3), 1, 4.560705177072565)
((-3, -5, 0, 4, 0, -2, -12, 0), 1, 4.580233306667868)
((-1, 1, -2, 5, 2, 0, 0, -1), 1, 4.599426169826135)
((0, 3, 1, -1, 0, 2, 10, 13), 1, 4.6200467662468805)
((-3, 0, 0, -6, -2, -3, -17, 0), 1, 4.641048813766907)
((-3, -12, -5, -15, -2, 1, 33, -4), 1, 4.6601823780995755)
((-1, 5, 1, 13, 2, 0, -17, -9), 1, 4.6802755570811065)
((2, 3, -1, -11, -1, 4, 1, -4), 1, 4.699810528848594)
((-4, -3, -5, -16, -8, -5, -30, 2), 1, 4.721126746108087)
((0, -2, 0, 1, 0, -3, -23, -11), 1, 4.741027203906424)
((-5, -2, -1, 24, 4, -2, 5, 7), 1, 4.760545640424466)
((1, 1, 0, -2, -3, -2, 16, 9), 1, 4.781187903723795)
((-1, -3, -4, -10, -9, -3, 1, -2), 1, 4.801031343420596)
((1, 0, 1, 7, -1, 2, 34, 5), 1, 4.824366571655504)
((0, -2, -2, -6, 3, 3, -19, -3), 1, 4.843770971970471)
((2, 1, 0, -30, -5, 7, 9, 17), 1, 4.865655089521271)
((-2, 0, -3, 3, 3, -4, -4, -13), 1, 4.885291553509493)
((-1, 0, 2, 5, -3, -4, 2, -3), 1, 4.907454489576806)
((-3, 2, 0, -9, -5, -3, -16, -15), 1, 4.930646602376856)
((-4, -2, -4, -11, -5, -3, 2, -18), 1, 4.950040169252532)
((-1, -1, -2, 2, -2, 1, 11, 5), 1, 4.971227525602553)
((-1, -2, -3, -3, -3, -7, -22, -13), 1, 4.9927569905617935)
((-4, -2, -3, 1, -1, -1, -7, 2), 1, 5.014292157331188)
((-1, 1, -4, -10, -2, -4, -18, -2), 1, 5.035055869186791)
((0, -3, 0, 6, -1, 4, -19, 19), 1, 5.054390137236869)
((-1, -1, -1, -2, -1, -3, 2, 2), 1, 5.07468516029784)
((-3, -6, -5, -7, -6, -3, -11, 2), 1, 5.0935604326305475)
((0, -1, 1, -7, -4, -2, 14, 5), 1, 5.113519619073467)
((-3, -4, -2, 2, -5, -6, -4, -10), 1, 5.136574318248814)
((-1, 1, 2, 4, 0, -3, 10, -5), 1, 5.162651546986622)
((1, -1, -5, -17, -7, -2, -35, 10), 1, 5.186177785861678)
((3, 2, 6, 8, 5, 3, 48, 26), 1, 5.20645912457828)
((1, -2, -2, 14, 2, 6, 8, -10), 1, 5.226194229882161)
((-2, -2, -2, -18, -7, -2, -12, -10), 1, 5.247016670382346)
((0, 0, 0, 9, 2, 0, -5, -3), 1, 5.265853170406009)
((-3, -4, -4, -1, 1, -3, -5, -11), 1, 5.28489778650028)
((-5, -9, -2, -20, -9, -2, -1, -7), 1, 5.3081537595740516)
((-4, 2, 1, 11, 3, 0, -7, -1), 1, 5.330047000021096)
((-2, 1, -1, 10, 4, 0, -1, 1), 1, 5.352232743329025)
((-2, -2, -1, -17, -2, -2, -9, 3), 1, 5.372156578548992)
((2, -2, 0, 2, 1, -4, 0, 4), 1, 5.391656199093526)
((-1, -1, 2, -1, -1, -1, 28, -2), 1, 5.413560272979863)
((0, 1, 0, 1, -2, 0, -12, 1), 1, 5.433757795087207)
((-2, -3, 0, 8, 2, -1, -6, 8), 1, 5.453394829256444)
((-1, -1, -1, -2, 2, 0, 22, 10), 1, 5.474496088273144)
((3, -1, -6, -9, -3, 0, -7, 2), 1, 5.494795672782238)
((1, -2, -2, -4, -4, 1, -12, 6), 1, 5.5145746820243025)
((-2, -1, 1, -10, -3, 3, -5, -6), 1, 5.535069268440652)
((1, 0, 2, 11, 3, 2, -28, -5), 1, 5.555454950283067)
((-1, 1, -1, 6, -1, -3, -3, -13), 1, 5.575399312019587)
((0, 1, 0, 3, -3, -3, -8, 31), 1, 5.595160645650174)
((-4, -3, -1, -11, -7, -3, -5, -3), 1, 5.614739521355845)
((-1, -1, -3, -7, -2, -6, -36, 13), 1, 5.634215194297734)
((-1, -1, -1, -2, 0, 2, 15, -1), 1, 5.65613295252844)
((-3, -1, -2, 11, 0, -1, 5, -11), 1, 5.6751678755454495)
((2, -3, -4, -12, -4, 1, 28, 21), 1, 5.6958574638690544)
((0, -1, -3, -7, -5, -2, -41, -10), 1, 5.714909492316526)
((-1, -2, -5, 0, -2, -6, -5, 25), 1, 5.734993548401811)
((2, -2, 1, 4, 3, 5, -2, 3), 1, 5.758422856504255)
((-2, 0, -2, 2, 1, -2, -5, -9), 1, 5.778160812713212)
((0, 0, -3, 3, -2, 1, 7, -7), 1, 5.797335430078987)
((0, 0, -2, -10, -3, -4, -5, -2), 1, 5.817791244186292)
((0, -2, 1, 11, 2, -1, 1, -3), 1, 5.83880412514561)
((-3, -4, -1, -13, -5, -1, 5, -1), 1, 5.8601727990585175)
((-1, 0, 0, 2, 1, -1, -1, -4), 1, 5.879302372124078)
((-2, 0, -1, 0, -3, -3, 4, 12), 1, 5.898201021878416)
((-4, 1, 0, -13, -4, -3, -2, 0), 1, 5.917968627500173)
((-1, -3, -1, -4, 10, 5, -6, -4), 1, 5.937991104035798)
((2, 4, -4, 0, -11, -7, -7, -1), 1, 5.960783519944076)
((0, 10, 5, 0, -3, 0, -3, -1), 1, 5.980517484885927)
((-1, -8, -4, -4, -9, -4, -9, -4), 1, 6.000198422993348)
((-2, 2, 1, -2, 44, 1, -9, 0), 1, 6.019975721692366)
((-2, 0, -3, -8, -31, -7, -6, -3), 1, 6.040386491499456)
((3, 2, -3, -4, -7, -4, -1, 2), 1, 6.063247329129579)
((1, -6, -1, 15, -55, 7, 3, 2), 1, 6.082853573523987)
((-7, -6, -7, -12, 70, -12, -8, -7), 1, 6.106779509290814)
((-1, 0, -1, -1, 2, 13, 2, 0), 1, 6.126497509164234)
((-2, 21, 7, -7, -19, 3, 0, -1), 1, 6.159033748444118)
((-4, -9, -8, -7, -32, -11, -6, -4), 1, 6.1823478799814575)
((0, -9, -3, -4, -99, -7, -2, -2), 1, 6.205459597258342)
((-4, -13, -4, 2, -14, 2, 1, 1), 1, 6.227056343577395)
((-2, -8, -8, -19, -14, -15, -4, -2), 1, 6.245835825499522)
((-2, -4, -4, -6, 11, 19, -2, 1), 1, 6.268282141531472)
((3, 6, 7, 16, 63, 9, 2, 1), 1, 6.292780539037729)
((-3, -2, 1, -4, 2, -3, -3, -18), 1, 6.313974737559933)
((2, -5, -7, -21, -56, -5, -10, -14), 1, 6.33288079966747)
((7, -2, -3, -15, -63, -30, -9, 2), 0, 6.355366458189481)
((5, 9, 7, 30, 75, 41, 20, -26), 0, 6.3744247586281215)
((2, -3, 4, 11, 27, 18, 12, 56), 0, 6.395188470483724)
((1, -4, -7, 5, 11, 35, -1, -19), 0, 6.417129035955044)
((9, -1, -8, -16, -32, -21, -9, -72), 0, 6.436433084411308)
((-10, -10, -7, -2, -9, 38, 3, -113), 0, 6.458958655604395)
((-23, -15, -12, -24, -21, -11, 15, 1), 2, 6.477380634029886)
((3, -8, 1, 5, 42, 22, 13, -87), 2, 6.497140257117427)
((0, -2, 3, 6, 46, 32, 7, 5), 2, 6.515453330968983)
((-5, -8, -9, -2, 20, -2, -14, -48), 2, 6.536134936758373)
((6, -6, -7, -4, -8, -6, -9, 46), 2, 6.560270699138855)
((1, 4, 7, 6, -35, 2, 4, 17), 2, 6.579684222350069)
((-1, -3, -7, -4, -3, -14, 3, 7), 2, 6.600020868625163)
((2, -3, -3, 1, -38, -2, -2, -19), 2, 6.623167366943984)
((0, -2, -4, -7, -33, -26, -3, 9), 2, 6.643243440495054)
((-1, -2, -1, 2, -43, -4, -4, -10), 2, 6.664845888624262)
((-13, -5, -4, -10, 15, -2, -11, -4), 2, 6.686798998077919)
((2, 1, -1, 0, 15, 7, -1, -19), 2, 6.707546174684077)
((3, 0, 3, 1, 17, -11, -2, 4), 2, 6.7289171293210455)
((-2, -5, -8, -15, -36, 4, 2, 28), 2, 6.750081108249436)
((-7, -3, 0, -1, 21, -4, -7, -14), 2, 6.774099413340753)
((4, -1, -3, -4, -29, -11, 2, 37), 2, 6.793799737602697)
((-2, 1, 3, 8, 22, 39, 7, -7), 2, 6.814840557431768)
((0, -6, -3, -1, -17, -2, 1, 8), 2, 6.835743963636135)
((-2, 1, -2, -7, -39, -4, -2, -10), 2, 6.857145137866919)
((-6, -4, -6, -17, 23, -3, -12, -46), 2, 6.880096064097469)
((-12, 5, 10, 19, -8, 21, 12, 33), 2, 6.900332928694873)
((-4, -3, 1, -5, -26, -4, -1, 6), 2, 6.921986693115463)
((-11, 2, 5, 6, 28, 2, 4, -2), 2, 6.941931054851984)
((1, -3, -6, -6, -41, -3, -6, -7), 2, 6.963223894689847)
((0, -1, -3, -8, 6, -13, -6, 22), 2, 6.9836825597022285)
((4, 0, 0, 0, 44, 9, 10, 28), 2, 7.004650396361333)
((-5, -4, -2, 3, 40, 6, 1, -20), 2, 7.0252909491176165)
((-5, -3, -2, 3, 7, -7, -6, -42), 2, 7.044823640161042)
((-1, -3, -4, -9, -34, -6, -3, -9), 2, 7.064112293729891)
((2, 3, 4, 4, 26, 2, 4, 2), 2, 7.086235317126128)
((7, -2, -2, -5, -63, -12, -7, 9), 2, 7.1062595042048)
((2, 5, 4, 14, 102, 29, 8, 1), 2, 7.126777468042779)
((-2, -4, 0, -5, 18, -10, -3, -1), 2, 7.148253335986576)
((2, 0, 1, 5, 6, 6, 2, -8), 2, 7.180741109880153)
((2, 0, -2, -6, -15, 2, 8, 47), 2, 7.200820604517316)
((7, 1, 1, 2, 28, 2, 0, -1), 2, 7.220424568187663)
((7, -2, -2, -1, -4, -6, -7, -16), 2, 7.240087830683607)
((-4, -1, -3, -8, 9, -1, 1, 9), 2, 7.25970946996543)
((0, 0, 1, -4, -34, -8, 0, 9), 2, 7.2844901070742925)
((1, -1, -4, -10, -24, -12, -5, -9), 2, 7.305047983583348)
((2, -2, -1, 6, 12, -11, -10, -21), 2, 7.324171854838756)
((0, -1, 0, -1, -24, 7, 2, -4), 2, 7.345425352186559)
((-3, -1, 0, -6, -4, -5, 1, 9), 2, 7.36652033921209)
((-5, -4, -5, -1, 37, -1, -3, -21), 2, 7.392335854863844)
((-1, 1, 1, -2, 24, -1, -2, 4), 2, 7.414008435257942)
((-1, 0, -2, -5, -19, -7, -5, -6), 2, 7.436297951510666)
((2, -1, 4, -1, -23, 5, 4, -8), 2, 7.458343430288814)
((0, 2, 2, 9, 26, 18, 9, 6), 2, 7.480859308404639)
((-4, -1, -1, -1, 28, -2, -1, -10), 2, 7.505604024109534)
((-5, -2, 1, 1, -26, -5, -2, -31), 2, 7.526854100371245)
((4, 2, -1, 2, -6, 0, 3, 14), 2, 7.545107305216187)
((0, -1, -4, -6, -12, -3, -5, -4), 2, 7.564934779844557)
((0, -2, -1, -3, -37, -3, -3, -4), 2, 7.587433552529921)
((-2, -1, -3, -1, 2, -9, -2, -2), 2, 7.607701777083171)
((-3, 2, 1, -2, -12, 2, 1, -19), 2, 7.628306408435486)
((-4, -2, -1, -3, 34, 9, 1, 2), 2, 7.647564272229505)
((4, -4, -3, 2, -14, -9, -5, -10), 2, 7.666962970734319)
((-1, -1, 0, 2, -29, 0, 0, 6), 2, 7.687742647658352)
((-5, -1, -2, -3, 33, -2, -4, -9), 2, 7.706940642445757)
((3, 0, -1, -4, -9, 0, 1, 7), 2, 7.7279888746280285)
((-5, -4, -3, 2, 61, -1, 4, 16), 2, 7.747613934995943)
((3, 0, 1, 1, -85, -5, 1, 4), 2, 7.768695807858121)
((3, 2, 1, 6, 83, 13, 4, 14), 2, 7.793332759351111)
((-1, -3, -1, 1, 51, 0, -1, 2), 2, 7.81277764251817)
((1, -1, -1, -12, 14, 10, 0, 16), 2, 7.832816654303242)
((-3, -2, 0, 1, -60, -2, -3, 2), 2, 7.854768053213854)
((-2, -1, -4, -2, 9, -2, 0, 5), 2, 7.875339614067278)
((-1, -1, -1, -2, 12, -1, -1, -9), 2, 7.896191133799247)
((7, 3, -2, -6, 15, 1, 6, 81), 2, 7.917845468400853)
((-1, -4, -3, -4, 0, -7, -5, -27), 2, 7.937635881263224)
((-2, -2, 0, -4, 29, 0, -7, 3), 2, 7.95869095561768)
((-2, -5, -2, 0, -15, -4, 2, -7), 2, 7.979008215738251)
((0, -2, -1, 0, -76, -9, 0, -4), 2, 8.000539391240537)
((-2, -5, -5, -4, -31, -4, -12, -29), 2, 8.020489454787212)
((1, 2, -1, 1, 16, -1, -1, -8), 2, 8.040125918775434)
((2, -2, -1, 11, 72, 16, 10, 6), 2, 8.060791559496394)
((-2, -4, -2, -3, -3, -3, 1, 7), 2, 8.08204448666318)
((-2, -4, -4, -1, 1, -3, -4, 2), 2, 8.10563800689805)
((-3, -4, -3, -8, -56, -2, 2, -3), 2, 8.126346981376177)
((1, 1, 1, 8, 55, 20, 4, -2), 2, 8.155139982290178)
((-3, -2, -2, 3, 23, -3, -3, -8), 2, 8.178014504264668)
((-1, -5, -5, -10, -40, -11, -4, -1), 2, 8.201580655810801)
((-2, -2, -3, -1, 18, -4, -3, 4), 2, 8.222620905458855)
((-3, 2, 2, -4, -10, -4, -1, 16), 2, 8.242269913429416)
((-2, 0, -2, 4, 11, 12, 0, -3), 2, 8.261626418539093)
((-2, -5, -7, -3, 1, 6, 0, 6), 2, 8.283594922880166)
((4, 3, 3, 4, 6, 3, 4, 22), 2, 8.305880447865784)
((-3, -2, 0, -1, 4, -3, -1, 4), 2, 8.326393850255641)
((-2, -1, -1, -5, -10, -8, -4, 0), 2, 8.345220657202042)
((-3, -1, -3, -11, -9, -12, -3, -15), 2, 8.364542381269782)
((-2, -3, -4, -2, 10, 5, -3, -3), 2, 8.384937186008441)
((-1, -1, 2, 5, 13, 6, 1, 12), 2, 8.412829300918162)
((-2, -3, -4, -3, -12, -4, -2, -12), 2, 8.43307186732572)
((-14, -2, 1, -4, -20, -2, 1, -9), 2, 8.4533338198878)
((-3, -2, -2, -1, -7, 1, 2, 13), 2, 8.472997082383744)
((-2, -1, -3, -2, -20, -4, 0, -3), 2, 8.492756705471287)
((-3, -1, -1, -4, -11, -8, -1, -6), 2, 8.516708299383806)
((2, -1, -2, -3, -29, -3, 1, 0), 2, 8.537407580784672)
((-4, -1, -3, 5, 20, -4, -3, -2), 2, 8.557142115907537)
((-3, -2, 0, -5, -11, -5, -4, -7), 2, 8.576273399516145)
((-4, 2, 0, 0, 53, 12, -3, -1), 2, 8.597963085340703)
((0, -2, -3, -6, -5, -5, -1, -4), 2, 8.622647932038985)
((3, 5, 0, -2, 1, 2, -1, -2), 2, 8.642971464150724)
((-2, -7, -3, -5, -23, -7, -4, -7), 2, 8.662402662973415)
((-2, 0, -3, 0, -5, -5, -2, 6), 2, 8.683185190802524)
((-4, 0, -2, -1, -31, 0, -3, -7), 2, 8.703652978711151)
((5, -2, -1, -4, -5, -5, -4, 19), 2, 8.727362815873155)
((0, 0, 1, -2, -18, -2, -1, -1), 2, 8.746883533115257)
((-3, -2, -5, -3, 5, -9, -5, 2), 2, 8.766381443116746)
((-2, -1, -6, -13, -12, -8, -3, -9), 2, 8.786298436164529)
((-2, -2, 0, 2, 13, 3, 1, -2), 2, 8.806008453503734)
((0, 1, 0, -2, -21, -3, 0, -1), 2, 8.825092412088065)
((-1, -2, -2, -4, -10, -1, -1, -3), 2, 8.844706639016689)
((-1, -3, -1, 4, 17, 3, -1, -1), 2, 8.866838785309172)
((-2, -2, -3, -7, -19, -6, -3, -1), 2, 8.889574183115913)
((1, -3, -1, -2, 20, 0, -1, -1), 2, 8.91479614033067)
((-8, -4, -1, -3, 3, -2, -2, -2), 2, 8.935324937607943)
((1, -4, -5, -3, -5, -3, -2, -1), 2, 8.954306263609508)
((0, -1, 0, -3, -30, -6, -2, -2), 2, 8.974947956727823)
((-1, -2, -2, -4, -4, 0, -2, 2), 2, 9.000709305183117)
((0, -2, -3, -9, -18, -9, -5, -2), 2, 9.023793083590247)
((6, -2, 0, -2, -73, -8, 0, 6), 2, 9.042528091393175)
((3, 2, 2, 6, -12, -6, -3, -36), 2, 9.062350434392407)
((2, 4, 5, 8, 27, 2, 3, 5), 2, 9.084804732958572)
((0, -1, -3, -2, -8, -1, -1, 6), 2, 9.106455646474085)
((1, 1, 0, -2, -53, 2, -2, -1), 2, 9.128041559353848)
((-1, -2, -1, -3, -13, -3, 0, 2), 2, 9.149785412374866)
((-3, -2, -3, -2, 53, 3, 0, -2), 2, 9.176586200821175)
((-1, -2, -4, -2, -13, -10, -6, -2), 2, 9.195516210531357)
((0, 0, -2, 2, 18, 2, 0, -2), 2, 9.215966322828509)
((-1, 1, 0, 0, -15, -3, -1, 1), 2, 9.237624648697222)
((1, 1, 1, -3, -14, 2, 0, 2), 2, 9.25699711887533)
((-1, -1, -2, 1, -7, -2, -2, -1), 2, 9.27617971877532)
((-1, -2, -2, -3, -3, -1, 0, -2), 2, 9.296693691346192)
((1, -2, -1, 3, -31, -5, -1, -3), 2, 9.317496745691855)
((-1, -1, -3, -3, 7, 1, 0, 1), 2, 9.340329074271208)
((-1, 2, 6, 18, 108, 30, 6, 2), 2, 9.359857774047526)
((-2, 1, 0, 1, 11, 2, 0, 1), 2, 9.380233192631664)
((-1, -5, -3, -1, -11, -1, 0, -1), 2, 9.404115224460309)
((-4, -1, -5, -12, -16, -5, -4, -4), 2, 9.425363590178975)
((0, 0, 1, 3, 11, -1, 0, 0), 2, 9.44609366135467)
((-1, 0, 0, 0, -13, 1, -1, 0), 2, 9.468083832574328)
((-3, -1, -6, -5, 38, -4, -3, -3), 2, 9.487210554734812)
((0, 0, 0, -3, -4, -3, -2, -1), 2, 9.50657561255972)
((-1, -1, -1, -5, -4, 0, -1, 0), 2, 9.527031426667024)
((-1, -3, -1, 1, 5, 1, -3, -3), 2, 9.548126413692556)
((-2, -3, -2, -3, -4, -4, -1, -3), 2, 9.567336952462298)
((2, 1, 5, 8, -2, 5, -3, -3), 2, 9.588008865174427)
((-1, 1, 0, -2, 2, -1, 3, -4), 2, 9.607528442054498)
((0, 2, 2, 4, 0, 0, 2, 3), 2, 9.630173181079797)
((-1, -9, -5, 8, -5, -2, -14, -2), 2, 9.650974524882415)
((-6, -7, -8, -35, 1, -3, -9, -4), 2, 9.670536865338638)
((1, 4, 8, 15, 3, -3, -1, 3), 2, 9.689570647993618)
((0, -2, -2, -3, 6, 3, 1, 4), 2, 9.71047348401697)
((-2, 1, 3, 14, 9, -1, 8, 4), 2, 9.73402024940858)
((0, 2, 8, -14, 0, 2, 12, 4), 2, 9.75441619450927)
((-1, -1, 2, -2, -1, 0, 3, -7), 2, 9.774859464634238)
((4, 1, 5, 21, -8, 1, 3, 10), 0, 9.794781019130143)
((-10, -3, -4, -12, 15, 0, 2, 1), 0, 9.818788490782168)
((-3, 3, 2, 7, -51, 0, 1, -1), 0, 9.83997812785625)
((-22, 25, 15, -10, 66, 7, -11, -70), 3, 9.859533055959275)
((-3, 2, 7, 19, 97, 22, 12, -8), 3, 9.882737712741664)
((-46, 8, 9, 5, 6, -1, -4, 52), 3, 9.905550655166495)
((11, 4, 9, 19, -51, 8, 23, 1), 3, 9.92470702673978)
((-6, 18, 1, -4, -13, -9, -6, -27), 3, 9.951770098453157)
((27, -11, -8, -1, -10, 8, 2, 115), 3, 9.973619434962018)
((-1, 13, 8, 4, -58, 17, 11, 4), 3, 9.993295811621316)
((-3, 8, -4, -5, 4, -8, -6, 23), 3, 10.014782513004404)
((-6, -1, -2, -4, -7, 1, -4, -6), 3, 10.03312751699282)
((-4, -12, -4, -6, 63, -1, -5, -7), 3, 10.055150188530353)
((-10, -1, 0, 1, -21, -8, -3, -5), 3, 10.076361492483018)
((-10, -7, -4, -11, -3, 2, -1, 0), 3, 10.097235249274588)
((-1, 2, -3, -3, 9, -7, -5, -3), 3, 10.11630552351455)
((-7, 6, 0, 1, 13, 2, -1, 2), 3, 10.135677423511643)
((-13, -17, 3, 13, -18, 4, 10, -34), 3, 10.167889229793783)
((-3, 2, -4, -1, 9, 2, -8, -23), 0, 10.190951911503346)
((0, 4, 0, 28, -5, 2, 2, 10), 0, 10.210453242590924)
((-4, -3, -7, -11, 16, -8, -6, 1), 0, 10.234106631832407)
((-1, -10, -1, 7, -23, 9, 9, 12), 0, 10.25634597215578)
((-4, -2, -2, -9, -18, -5, -2, -27), 0, 10.276159192258767)
((-4, 0, -1, 6, 3, 0, -2, 1), 0, 10.2981596267367)
((-1, -3, 0, 1, 0, 0, 1, -7), 0, 10.321183536137218)
((4, -3, -7, -6, -15, -13, -5, 1), 0, 10.342370322306223)
((-18, -11, -7, -15, -4, -4, -6, -1), 0, 10.368723518655468)
((-2, 2, 0, 4, -18, -5, -1, -4), 0, 10.39010986817985)
((-2, -6, -2, -6, 20, -1, -2, -1), 0, 10.410884413474745)
((-12, 3, -1, -2, -2, -3, -1, -7), 0, 10.430466710266508)
((9, -3, 0, -1, -25, -3, -1, 7), 0, 10.45355904138887)
((-5, -5, -4, -8, 19, 0, -1, -4), 0, 10.475885049226578)
((-4, -2, -1, -2, 65, 8, 2, -1), 0, 10.497032492905523)
((-3, -2, -2, -8, 1, -4, -5, -31), 0, 10.517795064399095)
((-7, -13, -2, 3, 13, 3, 1, -3), 0, 10.539614751495158)
((5, -3, 3, 7, -45, 3, 5, 10), 0, 10.563551520701276)
((4, 2, -2, -5, 8, 1, -1, 3), 0, 10.583372153157462)
((-3, -4, -6, -8, -1, -4, -3, -3), 0, 10.602380847847765)
((5, -1, -1, -11, -20, -2, -3, 1), 0, 10.623367500480377)
((5, -1, -1, -11, -20, -2, -3, 1), 0, 10.642494792821877)
((4, 2, 2, 14, -6, -2, 1, 5), 0, 10.668071402628192)
((-4, -1, -4, -13, -4, -2, 0, -6), 0, 10.687945061918807)
((-19, -2, 1, 5, 18, 0, -2, 0), 0, 10.707017616882831)
((-4, -5, -2, -2, -6, -2, -2, 1), 0, 10.72801339241169)
((-3, 0, 0, 0, -2, 2, 2, 0), 0, 10.749374653971396)
((3, -2, 0, -2, 8, -5, -2, 3), 0, 10.7713442986745)
((5, 0, -2, -1, 5, 1, 1, -2), 0, 10.790960806327185)
((-5, 1, -1, 5, 64, 6, -2, -1), 0, 10.810817930368355)
((-3, -2, -2, 1, 27, 5, -1, -4), 0, 10.832095945499818)
((1, -6, 2, 3, 6, -1, 1, -36), 0, 10.853384794070573)
((0, -4, -5, -4, 23, -4, -1, 4), 3, 10.880555629995854)
((3, -2, -3, -5, 6, 0, -1, 16), 3, 10.900519377886898)
((4, -3, -2, 3, -15, -1, -3, -16), 3, 10.921182167702781)
((-2, -2, 1, -4, 1, -1, -2, -1), 3, 10.941737193306759)
((-3, -3, 0, 5, -7, 2, 0, -24), 3, 10.967333759448612)
((16, 3, 2, 5, 4, 2, 2, -60), 3, 10.987233076884918)
((-5, 0, 0, -2, -13, -2, -3, 0), 3, 11.00824424730119)
((-2, -3, -1, 2, -5, -3, 0, 19), 3, 11.033307694193676)
((-4, 2, 7, 10, -28, 9, 8, 16), 3, 11.053476137069236)
((5, 0, 0, 5, 65, -6, -2, 13), 3, 11.07599942753826)
((4, 0, -3, -2, -5, 0, 5, -38), 3, 11.09866241235605)
((-10, -3, -3, -13, -78, -13, -7, -13), 3, 11.119759680105643)
((2, -6, -4, -22, -63, -11, -2, -4), 3, 11.1387666642529)
((-4, -2, 1, -2, -2, -3, -3, -6), 3, 11.170750968309909)
((11, 0, 5, 4, -20, -8, -3, 6), 3, 11.191355599662225)
((-9, -5, -6, 9, -14, -6, -1, -5), 3, 11.209981132710201)
((-15, -5, 0, 2, -5, -1, 0, -4), 3, 11.231407394905661)
((14, 0, -2, 10, -3, 7, 2, 6), 3, 11.252083869065912)
((7, -4, -5, -16, -29, -3, 1, 3), 3, 11.270883877504591)
((-13, -4, -5, -11, 4, -5, -4, -1), 3, 11.290844774490557)
((-8, -1, 2, 3, -2, 2, 0, -3), 3, 11.309272454726202)
((-2, -1, 2, 0, -25, -1, -3, 0), 3, 11.329074271208881)
((-8, -2, -3, 8, 6, -4, -1, -3), 3, 11.348536259806401)
((0, -1, -5, -13, -24, -4, -3, -7), 3, 11.368291321445819)
((-5, 1, 2, 2, 10, -1, -2, 3), 3, 11.388572089981407)
((0, -2, -2, -4, 4, -1, -1, -2), 3, 11.409071237845879)
((-3, -4, -5, -11, -6, 1, -1, 1), 3, 11.431441719802786)
((2, -1, 0, 1, -8, -3, -2, -4), 3, 11.451358712850569)
((13, 0, -6, -4, 8, -5, -2, 4), 3, 11.474172225456416)
((-7, -1, 1, 8, 14, 1, -1, -5), 3, 11.49567660245098)
((-7, -3, -3, 2, 19, 3, -1, 1), 3, 11.516831458483125)
((0, -1, 2, 5, 19, 2, 1, 2), 3, 11.538336405658704)
((-15, -4, 2, 0, -29, 1, 3, 22), 3, 11.557984273267234)
((13, 4, -1, -3, -24, 4, 5, 8), 3, 11.583702858146376)
((-3, 1, 1, -2, 61, 3, 0, 0), 3, 11.603345023944751)
((-5, -2, -2, -12, -18, -7, -4, 10), 3, 11.623372632109517)
((-6, -2, -4, -1, -17, -7, -3, -11), 3, 11.642652162782118)
((1, 1, -1, -1, -5, -1, -1, 12), 3, 11.662887316836477)
((-6, -1, -3, -4, 0, -9, -5, 6), 3, 11.68391673304524)
((-5, -2, -2, 4, 14, 0, -3, -8), 3, 11.705025974596156)
((-2, 1, 0, 4, 0, -1, -2, -4), 3, 11.724615683741117)
((-5, -4, -6, -16, 17, -2, -1, 13), 3, 11.746824804470675)
((-1, -7, -1, 5, 5, 0, -3, 3), 3, 11.766275389447888)
((-6, 1, 1, 9, 5, 0, 0, -11), 3, 11.791416951139478)
((-6, 1, 2, -11, -69, 5, 5, -54), 3, 11.812319216981816)
((-3, -3, -4, 1, 28, -2, -8, 4), 3, 11.832829768466596)
((9, -2, -4, -2, 30, 0, -3, 11), 3, 11.853872869019728)
((-6, -3, -6, -6, 18, -6, -6, -7), 3, 11.874938776813474)
((-7, -2, -2, -12, 1, -1, -2, -5), 3, 11.899036907246943)
((-2, -3, 0, 3, 1, -1, 0, -29), 3, 11.918971575906204)
((-4, -1, 0, 2, 2, -2, 0, 5), 3, 11.937734522578882)
((-3, -1, 4, -1, 11, -1, -2, 5), 3, 11.95767204214322)
((-1, -4, -12, -31, -15, -6, -5, 2), 3, 11.97933321891701)
((2, -2, -4, -1, -2, 2, 2, 0), 3, 12.000331275169929)
((-4, 0, -2, 5, -8, 1, 2, 7), 3, 12.020012783458364)
((-2, 0, 4, 3, 6, -4, 1, 11), 3, 12.040739433547968)
((1, -3, -6, -5, -2, -3, -4, 2), 3, 12.061341213995208)
((3, -2, 2, 11, 6, 1, 0, -1), 3, 12.079973589215369)
((-2, -1, -1, 4, 0, -2, -1, -8), 3, 12.10285039191392)
((6, -1, -5, 2, 0, 0, -2, -2), 3, 12.123075852891017)
((-3, -2, -1, 0, 2, 2, -2, 3), 3, 12.142588587598905)
((-5, 0, 0, 9, 50, 3, -1, -10), 3, 12.174285520424169)
((-2, 1, -1, -4, -7, -2, -1, -6), 3, 12.197560879652464)
((2, -2, -6, -1, -16, -1, -3, -3), 3, 12.21875963962279)
((-8, 1, -1, 0, -11, 2, 0, -2), 3, 12.23873365077211)
((2, -5, -2, 1, 2, -4, -3, -3), 3, 12.263090643386557)
((-3, 1, 2, -2, 20, 3, 1, 3), 3, 12.283767687727822)
((-1, -4, -2, -4, -3, 0, -1, -6), 3, 12.306263039327096)
((1, -1, 0, -2, -12, -2, -2, -6), 3, 12.329110762793864)
((-4, -1, -8, -5, 3, 3, 0, -1), 3, 12.350056362393369)
((3, 1, 0, 1, 2, 2, 1, 10), 3, 12.370803538999526)
((-9, -2, -1, 1, 3, -5, -4, -7), 3, 12.394674167207864)
((-1, -2, -1, -1, -11, -5, -3, -3), 3, 12.41762908470552)
((-5, -5, -9, -21, -3, -4, -2, -2), 3, 12.437208530592207)
((0, 0, -1, 2, -2, -2, -1, -6), 3, 12.456718984576034)
((-4, 0, 0, -3, 1, -4, -1, -3), 3, 12.478137264237278)
((0, 2, 0, 3, -9, 9, 5, 3), 3, 12.500892048198542)
((2, -3, 1, -3, -37, -7, -3, -5), 3, 12.520341492813724)
((0, -1, -1, 1, 12, -2, -1, 2), 3, 12.539245844378215)
((-18, -2, -2, 0, -1, -3, -1, 0), 3, 12.560271269319871)
((-8, 0, -5, -2, 7, -2, -2, -28), 3, 12.578785617069851)
((3, -2, -2, -1, 4, -2, -4, -3), 3, 12.599697005808434)
((-1, 1, -2, 2, 16, 1, 1, -1), 3, 12.619641367544954)
((-5, -3, -5, -9, -1, -6, -3, 3), 3, 12.639422087330065)
((5, 0, 2, 9, 12, 0, -2, 1), 3, 12.658622933022547)
((6, -1, -3, -5, -9, 0, -4, -3), 3, 12.680991134255391)
((-1, 0, -2, -2, 0, -2, -2, -2), 3, 12.70237577323673)
((0, 0, -2, -4, 9, -5, -3, -2), 3, 12.724509059891243)
((2, -1, 1, -2, -8, -5, -2, 3), 3, 12.747483363543424)
((-4, 2, -1, -3, -1, -3, -1, -4), 3, 12.767571410895817)
((1, 0, 0, 0, -18, -2, 0, -3), 3, 12.786479183546401)
((1, -1, -1, -2, -4, -1, 0, -2), 3, 12.809633664399437)
((-2, -2, 0, 2, -8, 0, -5, -1), 3, 12.829871669358871)
((-4, -2, -1, 2, -22, 5, 1, -4), 3, 12.85262588313912)
((2, 1, -2, 1, -11, -4, 0, -3), 3, 12.875984488795657)
((-19, -4, -2, -1, 9, -4, -1, -1), 3, 12.896041746373221)
((-5, -5, -4, -8, 2, 0, -3, -2), 3, 12.919057673239523)
((2, -1, 1, -1, -10, -3, -1, -3), 3, 12.938702689942977)
((-5, -1, 1, -3, 13, 0, -3, -14), 3, 12.960053688244408)
((-18, -1, 1, 1, 11, 0, -3, -13), 3, 12.980489546016173)
((4, 0, -2, -9, 8, -2, -2, 4), 3, 13.000875798039603)
((-1, -1, -4, 7, -13, -5, 0, 2), 3, 13.023933348120028)
((-5, -3, -5, -4, -9, -4, 0, -1), 3, 13.045372154297825)
((-3, -1, 2, 0, -19, -5, 0, -5), 3, 13.06565064210935)
((2, 1, -1, 2, -44, 1, 4, 1), 3, 13.08712593987213)
((-6, 2, 1, 5, -2, -2, 2, 3), 3, 13.111781137157614)
((-2, -4, -6, -10, 1, -2, -4, -5), 3, 13.13177396428044)
((3, -2, -2, 1, -22, -1, 1, 2), 3, 13.15383027649788)
((-5, -3, -5, -6, 26, -4, -3, -7), 3, 13.181151070030202)
((-4, -2, 0, -5, 39, 0, -2, -5), 3, 13.203697167739842)
((-1, 0, -1, 17, 21, 5, 0, -9), 3, 13.223773241290912)
((-5, -3, -4, -13, 8, 0, 3, -1), 3, 13.240292525668124)
((-2, 0, 0, 6, 20, 3, 0, -2), 3, 13.257795942477859)
((2, -3, -6, -6, 26, 1, -2, -3), 3, 13.279815763110314)
((-4, -4, -6, -14, -11, -5, -1, 6), 3, 13.300146137394238)
((-6, -6, -2, 0, -3, -2, -4, -10), 3, 13.318689564376003)
((-7, -1, 1, 3, 7, -4, -4, -9), 3, 13.340689998853936)
((1, 0, 1, -9, -4, 2, 0, 2), 3, 13.361085373773612)
((-1, 0, -2, -7, -12, -6, -1, 19), 3, 13.380377448428552)
((-1, 0, -2, -1, -25, -3, -3, 0), 3, 13.400243695365967)
((4, 0, 2, 4, -24, 0, -1, -9), 3, 13.421996101102216)
((-5, -1, -4, -1, -3, -1, -3, -5), 3, 13.442995297717166)
((2, -2, -1, 2, 1, -2, 1, 2), 3, 13.462219520831278)
((-1, -5, -4, -9, 23, -10, -5, 6), 3, 13.483215296360136)
((2, 0, 4, 8, -8, 0, 1, -1), 3, 13.502702372922332)
((-5, -2, 2, -3, -8, -1, -3, -3), 3, 13.527377526543352)
((-1, 0, -3, -1, 19, 6, -2, -7), 3, 13.54867093656223)
((-2, -3, -1, 9, 12, 3, -3, -2), 3, 13.56793621270945)
((5, -1, 3, 4, -6, 0, 1, 2), 3, 13.588485536503274)
((-2, 0, -3, -8, 6, -1, -3, -6), 3, 13.611153082769187)
((-6, 0, 4, 6, -43, 10, 5, 3), 3, 13.637198951551149)
((-1, 0, -1, 2, -8, -2, 0, -5), 3, 13.656528087972088)
((2, -3, -3, -3, 12, -1, -3, -3), 3, 13.677022104207422)
((-16, -5, -1, -9, 18, -5, -6, -2), 3, 13.697001817166896)
((5, -1, 0, 0, -5, 1, 0, -4), 3, 13.717951408033509)
((-10, 0, -2, -5, -9, -1, -1, 2), 3, 13.739817279791815)
((-4, 0, -1, 4, -7, -4, -3, -7), 3, 13.761392359232286)
((-5, 0, -2, 3, 16, -3, -3, 0), 3, 13.781393168889327)
((-6, -1, -5, -5, -8, -1, 1, -4), 3, 13.803339436170802)
((-5, -3, -3, -4, -20, -1, 0, -2), 3, 13.821062372671452)
((5, 4, -1, 2, 0, 3, 0, -4), 3, 13.846790650627854)
((9, 1, -3, -10, -4, -3, -2, -2), 3, 13.8671700604791)
((4, 2, 1, 9, 3, 4, 2, 18), 3, 13.88677858559757)
((-5, -1, -1, 0, -12, -5, -3, -4), 3, 13.91037324619447)
((1, 0, 2, 2, -14, 1, 4, 1), 3, 13.934386989837664)
((-3, -3, -3, -10, 6, 0, -3, -6), 3, 13.954229859353449)
((0, -2, -1, -6, -22, 5, 0, -2), 3, 13.977043371959295)
((-4, -4, -4, -2, 1, -6, -5, -5), 3, 13.998565424565337)
((-7, -1, -4, -12, 23, -3, -4, -6), 3, 14.018103247237901)
((4, -1, -1, 4, -31, -3, 0, -2), 3, 14.040962374324977)
((1, 0, -2, -3, -17, -4, -2, -27), 3, 14.06299245821571)
((-2, 0, 2, -1, 5, -4, -3, -4), 3, 14.08386108337814)
((-9, -5, -6, -14, 2, -1, -1, -3), 3, 14.103823120726137)
((2, -1, 0, 1, -7, -2, 0, 1), 3, 14.124355909270516)
((2, 0, 0, -1, -4, 0, 1, 3), 3, 14.157340310828479)
((0, -2, -2, -8, 1, -5, -3, -1), 3, 14.181101464281866)
((4, -2, 0, 1, -10, -2, -2, -1), 3, 14.201026439863863)
((-2, -2, -2, -2, 1, -3, -3, -1), 3, 14.222093488019642)
((3, -1, -1, 1, 9, -6, -5, 2), 3, 14.244774148448908)
((0, -1, -6, -10, 5, 0, -1, -3), 3, 14.265786459227211)
((4, 0, 3, 2, 2, 1, 0, -2), 3, 14.285642442906349)
((5, 1, 1, 2, 10, -2, -3, -1), 3, 14.309917899635597)
((-3, -2, -8, -19, 1, -2, -2, -1), 3, 14.330544197866496)
((5, 0, 3, 1, -2, -2, 0, 0), 3, 14.355043165553768)
((3, -2, -5, -4, -13, -3, -1, -2), 3, 14.379605423333746)
((0, -3, -4, -8, 0, -1, -2, 0), 3, 14.400272204416737)
((2, 2, 6, 14, 2, 2, -1, -4), 3, 14.42040814697442)
((0, 0, 4, 11, 1, -8, -4, -4), 3, 14.443573461266748)
((1, 0, -1, 21, 14, -3, 2, -3), 3, 14.466203945766663)
((-1, 0, -4, -3, -11, -9, -2, -3), 3, 14.48494636592279)
((-2, -2, -3, -11, -41, -5, -2, -2), 3, 14.503627776710273)
((0, -2, -3, -9, -14, 1, -2, -1), 3, 14.524287145440063)
((-1, -1, -1, -6, 18, -5, -4, -4), 3, 14.548093913374679)
((-3, -4, -6, -19, 28, -4, -3, -1), 0, 14.569733993450901)
((-1, -2, 0, -1, -26, -9, -5, -2), 0, 14.590785076538248)
((0, 1, -2, -6, 64, 32, 5, 3), 0, 14.610578340305697)
((-3, -3, -5, 1, -56, -9, -2, -2), 0, 14.632487545821173)
((1, 1, 4, -5, -25, -11, -2, 3), 3, 14.658467273605352)
((1, 1, 1, 5, -5, 9, 5, 5), 3, 14.677797550388322)
((0, -2, -6, -15, 2, 3, -9, -1), 0, 14.69908240769197)
((2, 2, 2, 0, 13, 7, 20, 16), 0, 14.717974215274124)
((6, 9, 7, 24, 21, 29, 59, 43), 0, 14.7455715465989)
((4, 3, 1, 1, 10, 3, 52, 11), 0, 14.764166860053061)
((-2, -3, 0, -11, 2, 1, -37, -5), 0, 14.78518088137441)
((-9, -3, -4, -32, -12, 1, -6, -39), 1, 14.809617699331007)
((-2, 5, 11, 20, 13, 15, 50, -14), 1, 14.831746424537398)
((4, -6, -9, -21, -4, -5, 87, 18), 1, 14.852922947448127)
((2, -6, -2, -6, -3, -7, -17, -5), 1, 14.875400623435922)
((-2, -4, -4, 6, -1, 5, -3, -3), 1, 14.896430609825702)
((-8, -1, 1, -7, -3, 7, 8, 10), 1, 14.915755184798519)
((0, -4, -7, -20, -1, 4, -15, -6), 1, 14.937180306631946)
((0, -2, -1, -15, 2, 8, -27, -8), 1, 14.958907624403519)
((-12, -6, -5, -17, -3, -1, 16, -11), 1, 14.977570219217496)
((4, -1, -3, -2, -2, 1, 9, -11), 1, 14.99783502268465)
((-4, -2, -3, 0, -4, -2, 4, -14), 1, 15.017607759935547)
((-2, -1, 0, 8, 0, -1, 17, 12), 1, 15.037670149142247)
((-3, -1, -3, -28, -9, 2, 24, 20), 1, 15.0613001609621)
((-3, 2, 3, 3, 1, 0, 8, 2), 1, 15.080547761497844)
((-4, -3, -2, -3, -2, 0, 8, -14), 1, 15.100020013353639)
((1, 0, 0, -5, -2, -1, -22, 4), 1, 15.120188456229199)
((-14, -1, -1, 0, -2, 0, 6, 4), 1, 15.142643895157395)
((-12, -1, -2, 1, 0, -8, -25, 4), 1, 15.170749257766863)
((-4, -5, 0, -12, 0, -1, -5, -11), 1, 15.194204224014998)
((3, 2, 3, -4, -1, -3, 4, -6), 1, 15.214542580833138)
((2, -4, -6, 2, -5, -6, -18, -8), 1, 15.234232641836805)
((0, 1, 1, 16, 4, -1, -13, -8), 1, 15.257044443899606)
((-3, -2, -1, -3, -1, -3, 19, 7), 1, 15.281147705962212)
((9, 0, -3, -3, -1, -3, -16, -5), 1, 15.30048938636549)
((4, -1, 0, 6, 1, 2, 2, 12), 1, 15.320015235236731)
((-7, -1, 0, -1, -2, -1, -14, -9), 1, 15.340709955189475)
((-5, -4, -4, -12, -5, 5, 28, -3), 1, 15.359904528890787)
((-2, 0, 2, 3, -1, -4, 3, 24), 1, 15.380988682477026)
((-1, -1, -3, 9, -7, -1, 3, -4), 1, 15.40243889227513)
((-4, 1, 0, 4, 0, 8, 32, 9), 1, 15.423797873110777)
((-8, 0, -2, -19, -2, -2, -21, -7), 1, 15.443146395686238)
((-4, -4, -4, 4, 0, -8, -38, -26), 1, 15.461511356010192)
((-6, -3, -1, -1, -1, -6, -20, -8), 1, 15.485525099653387)
((-4, -3, -1, -6, 4, -13, -4, 0), 1, 15.505637664789441)
((0, 0, 4, -2, -3, -2, -4, 0), 1, 15.527116953819329)
((0, -1, -4, 7, 0, 0, -15, -5), 1, 15.547332721719163)
((-22, 0, -3, -28, -2, 15, 70, 15), 1, 15.568703676356133)
((0, -5, -2, 5, -3, -4, -27, -9), 1, 15.59105819324461)
((-1, -2, -3, 12, -5, -2, 3, 0), 1, 15.61087825551978)
((-4, -1, -1, 14, 0, -1, -21, -1), 1, 15.63224407852761)
((4, -2, 0, 0, 0, 1, 11, -2), 1, 15.651438652228924)
((0, 4, 3, 4, 4, 0, 0, -2), 1, 15.676784338724016)
((-1, -5, -2, -16, -2, 1, 5, 6), 1, 15.69582724427524)
((-3, -2, -3, 0, -1, 1, 23, 4), 1, 15.715574323380444)
((5, 1, 0, -2, 2, 4, -32, 18), 1, 15.733908493929567)
((4, 2, -1, 6, 0, -1, 10, -4), 1, 15.752656045714833)
((-9, -2, -1, -5, 0, -4, -1, -12), 1, 15.775739824121963)
((0, -3, -3, -5, -1, -4, -22, -1), 1, 15.794789001664359)
((-2, -2, -3, 3, 0, -2, 5, 6), 1, 15.81411414681819)
((-2, -3, -4, -14, -4, -3, 17, -6), 1, 15.833521398038235)
((-3, -3, -5, 16, -3, -4, -12, 12), 1, 15.852242721496793)
((0, -1, 1, 1, 0, 2, 3, -6), 1, 15.87353898242075)
((1, -2, 0, 10, 1, 1, 11, 24), 1, 15.892041356369406)
((-1, 1, 0, -7, -1, -2, -2, -4), 1, 15.912965289090328)
((-3, -2, -3, -10, -3, -1, 5, 0), 1, 15.932631972672365)
((2, -1, 1, 2, 2, -1, 16, -3), 1, 15.957152037057204)
((0, 0, -2, 2, 0, -1, 1, -3), 1, 15.979202077283475)
((0, -4, 0, 3, 0, -1, -4, 0), 1, 15.999779339947054)
((5, 1, 5, 13, -1, -2, 1, -1), 1, 16.024010322557103)
((-2, 1, -1, 3, -4, 2, 31, 11), 1, 16.045908694633287)
((-4, -1, -2, -9, -4, -2, -2, 1), 1, 16.06532563893059)
((-3, -1, 1, -1, 3, 0, -13, 8), 1, 16.087338047209848)
((2, -2, 2, -3, 1, 1, -8, 7), 1, 16.10902716285339)
((-2, -1, 3, 9, 1, 1, 19, -10), 1, 16.12983648919022)
((-1, 2, -1, -8, -3, 0, 18, 1), 1, 16.151942977337015)
((-2, -2, -1, 5, -1, 1, -13, 3), 1, 16.182931745341193)
((-2, -2, -3, -11, -1, -3, -16, -5), 1, 16.19921896604515)
((-1, -3, -2, 3, 1, 1, 5, 3), 0, 16.206165481355367)
((-1, -3, -2, 3, 1, 1, 5, 3), 0, 16.207198079174194)
((-1, -3, -2, 3, 1, 1, 5, 3), 0, 16.20853629401726)
((-1, -3, -2, 3, 1, 1, 5, 3), 0, 16.209855122705804)
((-1, -3, -2, 3, 1, 1, 5, 3), 0, 16.210688727350274)
((-1, -3, -2, 3, 1, 1, 5, 3), 0, 16.211562244665814)
((-1, -3, -2, 3, 1, 1, 5, 3), 0, 16.21216606636109)
((-1, -3, -2, 3, 1, 1, 5, 3), 0, 16.212958617972447)
((-1, -3, -2, 3, 1, 1, 5, 3), 0, 16.213813889495498)
((-1, -3, -2, 3, 1, 1, 5, 3), 0, 16.214901224691804)
((-5, -4, -2, 5, 0, -9, -32, -13), 0, 16.21594408576891)
((-1, 2, 3, -17, -5, 6, 5, -1), 0, 16.2168044889211)
((-1, 2, 3, -17, -5, 6, 5, -1), 0, 16.21761528632495)
((-1, 2, 3, -17, -5, 6, 5, -1), 0, 16.219011089450568)
((-1, 2, 3, -17, -5, 6, 5, -1), 0, 16.220234697909547)
((-1, 2, 3, -17, -5, 6, 5, -1), 0, 16.22112646101758)
((-1, 2, 3, -17, -5, 6, 5, -1), 0, 16.222031908469983)
((-1, 2, 3, -17, -5, 6, 5, -1), 0, 16.223115822580194)
((-2, -2, -7, -19, -3, -4, -22, -5), 0, 16.2242031577765)
((-2, -2, -7, -19, -3, -4, -22, -5), 0, 16.22507325400595)
((-2, -2, -7, -19, -3, -4, -22, -5), 0, 16.226129799427426)
((-2, -2, -7, -19, -3, -4, -22, -5), 0, 16.226906385970356)
((-2, -2, -7, -19, -3, -4, -22, -5), 0, 16.228118590809025)
((-2, -2, -7, -19, -3, -4, -22, -5), 0, 16.228912282782414)
((-2, -2, -7, -19, -3, -4, -22, -5), 0, 16.230020144495274)
((-2, -2, -7, -19, -3, -4, -22, -5), 0, 16.230990592583428)
((-2, -2, -7, -19, -3, -4, -22, -5), 0, 16.231830469219062)
((-2, -2, -7, -19, -3, -4, -22, -5), 0, 16.23276613626528)
((-2, -2, -7, -19, -3, -4, -22, -5), 0, 16.23368754878611)
((-2, -2, -7, -19, -3, -4, -22, -5), 0, 16.23449150401778)
((-2, -2, -7, -19, -3, -4, -22, -5), 0, 16.235250414949235)
((-2, -2, -7, -19, -3, -4, -22, -5), 0, 16.237854431646415)
((-2, -2, -7, -19, -3, -4, -22, -5), 0, 16.238977118065673)
((-3, -2, 1, 4, 3, -4, -11, -18), 0, 16.239904802577673)
((-3, -2, 1, 4, 3, -4, -11, -18), 0, 16.240756653014632)
((-3, -2, 1, 4, 3, -4, -11, -18), 0, 16.24168604806968)
((-3, -2, 1, 4, 3, -4, -11, -18), 0, 16.242977508069487)
((-3, -2, 1, 4, 3, -4, -11, -18), 0, 16.244059141455637)
((-1, 1, 0, -10, 0, 4, 4, -2), 0, 16.249121208510065)
((-1, 1, 0, -10, 0, 4, 4, -2), 0, 16.251687023079217)
((-1, 1, 0, -10, 0, 4, 4, -2), 0, 16.255401752394334)
((-1, 1, 0, -10, 0, 4, 4, -2), 0, 16.257867785285793)
((-1, 1, 0, -10, 0, 4, 4, -2), 0, 16.259686662724814)
((-1, 1, 0, -10, 0, 4, 4, -2), 0, 16.261355582556796)
((-4, -2, -2, -1, -2, 0, -28, -1), 0, 16.262974896640436)
((0, 2, 3, 7, -2, -4, 10, -1), 1, 16.290374945333895)
((2, -1, 3, 7, -1, 2, 35, 10), 1, 16.31098926976347)
((-7, -1, -1, -18, -2, 0, -4, -19), 1, 16.330708409998923)
((-2, -2, -1, -7, -1, -1, 5, 1), 1, 16.35074171997384)
((-10, -3, -7, -26, -4, -1, 35, -6), 1, 16.372933165091922)
((-3, -2, -4, -4, -3, -2, -10, -9), 1, 16.39566514181257)
((-1, -1, -1, 10, 0, -4, 6, 3), 1, 16.41627091352692)
((-1, -2, -1, -3, -1, 3, 26, 17), 1, 16.437533533770967)
((2, -1, -3, -4, -1, -3, 11, -8), 1, 16.458971769767746)
((-3, -1, -2, 2, -3, -2, -20, 3), 1, 16.47829064293041)
((3, 1, 1, 3, -1, 2, -3, 1), 1, 16.498773825726452)
((-1, -1, -2, -2, -3, 0, -18, 4), 1, 16.519762759083125)
((0, -2, 1, 5, -2, -1, 0, 1), 1, 16.540140458391324)
((1, -1, 0, 1, 0, -1, 6, 0), 1, 16.559381786935898)
((-1, 1, 0, 1, 0, 2, 19, 1), 1, 16.58031313201002)
((-3, -3, -7, -19, -3, -6, -14, -3), 1, 16.603073617781437)
((-2, 1, 3, 17, 0, 0, -6, 3), 1, 16.62421022802109)
((-5, -2, -2, 5, 0, -1, -13, -6), 1, 16.644452224247633)
((-3, -4, -3, 5, -2, -2, -35, -16), 1, 16.665838573772014)
((2, 2, 2, 12, 3, 0, -8, -4), 1, 16.684949901045083)
((-2, -3, 1, 10, 1, -6, -23, -10), 1, 16.708375788061435)
((-2, -2, -4, -14, -1, -3, 4, -1), 1, 16.730883683643047)
((-1, 0, -1, 9, -4, -2, -1, 1), 1, 16.7535563615381)
((-4, -4, -2, 4, -2, -1, 13, 2), 1, 16.77532815342887)
((1, 1, -1, 9, -5, 4, 30, 1), 1, 16.797903900551308)
((-1, 1, 1, -1, 2, -1, -3, -4), 1, 16.820600526049006)
((-2, -1, -3, -9, -5, -2, 0, -15), 1, 16.83780345746364)
((-3, -1, -4, 2, 1, -1, -6, -8), 1, 16.86128465203848)
((0, -3, -4, 4, -5, -3, -32, -14), 1, 16.882501087620287)
((-3, 0, 0, -2, 2, -1, -1, 1), 1, 16.910672591227538)
((2, -1, 0, -18, -1, 6, -2, 3), 1, 16.93088493804128)
((-4, -3, -1, 3, -1, -5, -16, 1), 1, 16.95129456748634)
((0, -3, -5, -3, 2, 0, 5, 5), 1, 16.972308018626673)
((-4, -1, 0, 9, 0, -2, 11, -1), 1, 16.993500506605834)
((0, -1, -1, 9, -1, -1, -4, -4), 1, 17.015701644801176)
((3, 3, 1, -7, 1, 7, 8, 8), 1, 17.03615745890848)
((-3, -3, -2, -5, -5, -7, -23, -3), 1, 17.05590339765165)
((0, -2, -3, -6, -6, -3, 4, 6), 1, 17.074993628227155)
((-1, -2, 1, -2, -1, -2, -9, -16), 1, 17.094108376586316)
((0, -3, -3, -12, -4, 0, 19, 0), 1, 17.1151571789496)
((0, -1, -1, 10, 0, 0, -7, -1), 1, 17.138527758407463)
((1, 1, -2, -16, -2, 6, 18, 5), 1, 17.165934649273105)
((-1, -3, -2, -5, -7, -2, -22, 0), 1, 17.189068033428573)
((-3, 0, 1, 7, 2, -3, -4, -4), 1, 17.21097324767694)
((-1, -1, -1, -3, -1, -1, 9, 6), 1, 17.231622353148452)
((-1, -1, -1, -3, -1, -1, 9, 6), 1, 17.25140763438169)
((0, -2, -1, 4, -2, -3, -3, -1), 1, 17.27365552742029)
((1, -1, -1, -1, -5, 0, -14, -11), 1, 17.294940954904952)
((-1, -1, -3, -10, -3, -4, 10, 1), 1, 17.31533233855752)
((-3, -1, -2, -8, 0, -1, -26, -6), 1, 17.33790694531793)
((-3, -3, -1, 9, -1, -5, -8, -7), 1, 17.357032527116385)
((1, -2, -6, -28, -7, -4, 4, 10), 1, 17.376942107810965)
((-1, -2, 2, 4, 0, 0, 2, -7), 1, 17.398863287127764)
((-2, -2, -3, -27, -8, -2, -2, -7), 1, 17.420084854338707)
((-2, -1, 0, 3, -1, -2, -4, -5), 1, 17.44072654745702)
((1, 0, -1, -2, -1, 0, -11, 2), 1, 17.461256485096325)
((-1, 1, 1, -10, -5, -1, 17, -7), 1, 17.48065233269606)
((2, 1, -1, 13, 5, 7, 33, -6), 1, 17.501509554238183)
((-1, 1, 2, 10, 1, 0, -2, -1), 1, 17.5273866494396)
((-2, -1, -4, 0, 2, -3, -8, -3), 1, 17.547786015626382)
((-1, -1, -1, 15, -1, -5, -2, -10), 1, 17.56978702028533)
((-3, -3, -1, 24, -2, -3, -14, -2), 1, 17.59135354701057)
((-3, -2, 2, -12, -3, -3, -10, -1), 1, 17.61433013138681)
((-3, -1, -5, -5, 0, -2, -14, -5), 1, 17.63825720751567)
((-2, 1, 0, -17, -2, 1, -10, 1), 1, 17.65909276217921)
((3, 0, 1, 4, 2, 1, -4, 4), 1, 17.678746901778908)
((0, 0, 1, 5, 0, -4, 8, 5), 1, 17.699739256221672)
((-2, -2, -1, -1, 2, 1, -9, -2), 1, 17.72635929728611)
((0, 0, 1, 1, 0, 0, -14, -3), 1, 17.745837821133076)
((-3, -3, -3, -2, -3, -3, 1, 1), 1, 17.765197747328845)
((-6, -6, -9, -33, -5, 1, 49, 21), 1, 17.78561421894609)
((-3, -3, -1, -4, 1, -1, -12, -1), 1, 17.804725546219156)
((-2, -1, -3, 7, -1, -2, -7, -5), 1, 17.830161891495692)
((0, 0, 4, 1, 0, -1, -2, 5), 1, 17.850069191466215)
((-1, -2, -4, -1, -1, -2, 2, 17), 1, 17.869219291048328)
((0, -1, 0, 1, 0, 2, 17, 6), 1, 17.88830438999469)
((-1, -2, 0, 2, -2, -2, -11, 2), 1, 17.908444323819484)
((-5, -3, -4, -15, -3, -2, 12, 2), 1, 17.936390035744648)
((-2, 0, -4, -7, -4, -4, 0, -4), 1, 17.956718699485524)
((0, 0, 2, 4, -1, 1, -14, 9), 1, 17.979049268771355)
((-1, -1, 1, 15, -4, -4, -13, -3), 1, 17.99769874942198)
((0, -1, 1, 18, 1, 0, 4, 2), 1, 18.021415428756168)
((0, -1, -2, -14, -4, -2, 7, 1), 1, 18.041935673318207)
((0, -4, -4, 2, -3, -2, -8, -1), 1, 18.06191937754479)
((-1, -2, -4, -25, -3, -4, -12, -11), 1, 18.08153873610255)
((0, -2, 0, 9, 0, 0, -12, -3), 1, 18.102804207251676)
((1, -1, -1, 9, 1, 0, 9, 5), 1, 18.12404516061714)
((2, -2, -3, -5, -2, -2, 0, 0), 1, 18.143946188596495)
((1, -1, 0, -3, -1, 2, 1, 4), 1, 18.169300427806817)
((-4, -1, -3, -21, -2, -4, -6, -5), 1, 18.190608662532092)
((-7, 0, 0, -10, -2, 0, 3, -2), 1, 18.210496576348092)
((-3, 1, 2, -2, -2, -2, -1, -15), 1, 18.229160881705116)
((0, 0, -1, 4, 4, 1, -2, -4), 1, 18.249912619759396)
((-2, 2, 3, -15, -3, -2, -1, -2), 1, 18.268705215844875)
((-2, -2, 2, 9, 0, -3, -9, -10), 1, 18.28870944658801)
((-2, -1, -3, -10, -2, -2, -11, 0), 1, 18.309188067935928)
((0, -2, -1, -10, 0, -3, -4, -3), 1, 18.330331520347766)
((0, -2, 0, 2, 1, -1, -3, 4), 1, 18.353886268273587)
((-3, 1, -3, 3, -3, 0, -1, 11), 1, 18.373306633656988)
((-3, -2, -1, 2, 1, 1, -8, -4), 1, 18.393352487614244)
((-2, -6, -5, 25, -2, -2, 2, -6), 1, 18.4157805578537)
((-1, -2, 2, -1, -1, 0, 4, 2), 1, 18.44114791122738)
((1, 2, 0, 7, 1, 0, -7, 5), 1, 18.46151933854441)
((-1, -1, -9, -16, -4, -7, -8, -3), 1, 18.484418948483576)
((-2, 1, -1, -3, 0, 1, 7, 2), 1, 18.505876000453863)
((-4, -1, -1, 0, -1, -3, -1, 2), 1, 18.527481299488148)
((1, 1, 2, 5, 2, 0, 6, -6), 1, 18.551091354972463)
((0, -2, -1, -6, 0, 3, 3, -8), 1, 18.571929760541078)
((1, -3, -1, -1, -2, -2, -9, 0), 1, 18.588423956953616)
((0, 0, 3, -3, -2, 1, 0, 2), 1, 18.610832070857533)
((0, -2, 0, 9, -1, -4, -5, -4), 1, 18.630404104391022)
((-2, -3, -3, -3, -2, -3, 0, -3), 1, 18.654170389473546)
((-1, -1, 0, 1, -5, 1, 0, -3), 1, 18.677645882238235)
((-2, -3, -2, -8, -1, -1, -2, -3), 1, 18.698082310191015)
((1, 4, 0, 1, -3, -3, 1, 0), 1, 18.717849915812774)
((1, -12, 2, -5, 13, 14, 2, 2), 1, 18.737972174026087)
((1, -1, -6, 5, -1, -1, -1, -1), 1, 18.759469708848467)
((-2, -1, -3, 1, 1, -3, 1, -1), 1, 18.780968384032878)
((-2, 2, 2, 8, -4, 3, -3, -3), 1, 18.801330688453664)
((4, 14, 0, 0, 6, -10, -2, -2), 1, 18.82154873707756)
((1, -2, 5, 14, -54, 18, 12, 5), 1, 18.843981368765142)
((-3, 5, -2, -7, 16, 14, -3, -2), 1, 18.874206094208727)
((-6, -21, -6, -4, 25, -10, -4, -3), 1, 18.894356291291796)
((2, 0, 2, 9, -14, -3, 4, -1), 1, 18.914052054105618)
((-8, 0, -3, -14, 65, 4, -8, -2), 1, 18.93846207355449)
((2, 34, 3, -12, 12, -23, -8, -3), 1, 18.962328140314707)
((-13, -12, -6, 6, 10, 3, -3, -8), 1, 18.982678470934168)
((-10, -3, -2, 3, 73, -6, -4, 2), 1, 19.00337832251605)
((5, -14, -7, -6, -7, 3, -4, -1), 1, 19.02564617189019)
((7, -4, 3, 16, -68, -16, 0, -3), 1, 19.047665992522646)
((2, -6, 2, -2, -44, -8, -5, -15), 1, 19.069780463203653)
((2, -17, -6, 4, 65, 22, -2, -40), 1, 19.09275134576974)
((-10, 30, 8, -1, -70, -35, -7, 4), 1, 19.113276721960922)
((-39, 18, -3, -2, -72, 5, 0, -28), 0, 19.13228370610818)
((-3, -16, 1, 7, -27, 22, 7, -32), 3, 19.157011886563627)
((-7, -11, -6, -9, 26, -4, -2, -12), 3, 19.182487574330224)
((4, 3, 1, 1, -26, 16, 4, 14), 3, 19.202965625497125)
((-8, 9, -6, -4, -4, -12, 1, 13), 0, 19.22342315014748)
((-1, 3, 5, 20, 18, 0, 4, 17), 0, 19.243098386444746)
((3, -3, 4, 5, 10, -4, -1, 4), 0, 19.270583392109494)
((-4, -9, -4, -8, -36, -12, -5, -47), 0, 19.291311182561127)
((6, 0, 1, 1, 37, -2, -2, -13), 0, 19.309941277057227)
((6, 1, 6, 9, -48, 2, -1, -8), 0, 19.329854278837903)
((2, -12, -13, -23, -33, -6, -4, -1), 0, 19.351079837315954)
((1, 1, 1, -3, 4, -1, -3, -1), 0, 19.373088824509118)
((7, 0, -2, -5, 10, 5, 3, 8), 0, 19.394025301212377)
((-1, -6, 2, 5, -2, -2, -1, -2), 0, 19.41506612104145)
((3, -3, 3, 6, -4, -3, -1, 0), 0, 19.434857104084834)
((-2, 3, -5, -8, 21, -2, -6, -2), 0, 19.453462110616258)
((1, 0, 3, 6, -16, -2, 2, -3), 0, 19.47764576820203)
((-12, 0, -2, -14, 16, 1, -2, 7), 0, 19.49714995019469)
((5, -1, 2, 6, 7, -1, -2, -9), 0, 19.516641588205008)
((-8, 0, 0, 6, 18, 1, 0, -8), 0, 19.535319007725384)
((-1, -9, -6, -9, -3, -5, -4, -8), 0, 19.554396694318545)
((2, 0, 1, 4, -32, 5, 4, -3), 0, 19.575148432372824)
((-19, 0, -5, -10, -3, -1, -1, 3), 0, 19.594651474003452)
((-6, -5, -3, -4, 7, -4, -1, -1), 0, 19.616199184755185)
((-12, 2, 3, -2, -42, -3, -1, -2), 0, 19.63633740803693)
((11, 1, 3, 4, -7, 5, 0, -1), 0, 19.65596645967195)
((-2, -4, -3, 3, 1, 2, 0, 0), 0, 19.676952542123548)
((-5, -4, -5, -14, -23, -1, 1, -1), 0, 19.703196833898858)
((3, -1, 4, 8, -4, 7, 4, 1), 0, 19.724401865860354)
((0, 0, -3, -7, -2, -3, -1, -1), 0, 19.743522886210684)
((-10, -4, -2, 9, -1, 2, -1, 1), 0, 19.766083808626725)
((-2, -1, -6, -9, -9, -3, -3, 1), 0, 19.787084145603703)
((3, 4, 0, -3, 8, -3, -4, -4), 0, 19.806811838554385)
((1, -6, -6, -15, -27, 1, 2, -3), 0, 19.828028844317206)
((2, -2, -3, -13, -11, 0, -3, -2), 0, 19.849569142715737)
((-8, -1, 0, 2, -4, -4, -2, 0), 0, 19.873641615003514)
((4, 2, 9, 19, -45, 5, 6, 5), 0, 19.893532949905605)
((1, 2, -2, -4, 22, 0, -3, -1), 0, 19.91356797042357)
((-1, 2, -3, -7, -3, -5, -5, -2), 0, 19.932763684486915)
((4, 2, -3, 3, -42, 0, 3, -1), 0, 19.952394446664982)
((2, 9, 0, -11, 13, -5, -3, 0), 0, 19.975740508339182)
((-2, -5, -6, -10, -1, -3, -1, -1), 0, 19.994717272892625)
((-3, -3, -9, -10, 10, -6, -2, -3), 0, 20.015566511900534)
((-3, -2, 2, 2, 15, 1, -3, 0), 0, 20.03466472501025)
((3, 2, 3, 3, -12, -1, -1, -1), 0, 20.053535435894833)
((-4, 3, -2, -22, -23, -3, -4, -4), 0, 20.078242519652715)
((-2, -7, -3, 10, 0, -6, -3, -3), 0, 20.099393384417752)
((-1, 8, 2, -4, 17, -1, 1, 1), 0, 20.119822400017334)
((4, -8, -3, 4, -6, -4, 0, -1), 0, 20.13991215791277)
((1, -16, -5, -14, 7, 0, -2, -4), 0, 20.168368752027707)
((4, 1, -1, 1, 38, -5, -2, 1), 0, 20.19066168936652)
((-7, 0, 0, 6, 23, 15, 1, 0), 0, 20.210117405972873)
((0, 5, 7, 3, -50, -3, 3, -2), 0, 20.23090563561214)
((4, -2, 4, 12, -4, -3, 1, 2), 0, 20.250124727097113)
((-2, -9, -2, -3, 2, -6, -2, -3), 0, 20.269534829222234)
((0, -7, -3, -1, 13, -6, -4, -4), 0, 20.29096964413292)
((1, -3, -4, -2, -9, -4, -1, -1), 0, 20.309482851520873)
((-1, -1, -1, 11, 29, 0, -2, -2), 0, 20.32942892380044)
((-2, -2, 0, 2, -2, -15, -3, -3), 0, 20.349751315550147)
((-6, -5, -8, -30, -8, -11, -3, -1), 0, 20.36945049945006)
((0, 1, 3, 10, 1, -1, -1, 2), 0, 20.394801887755307)
((-2, -3, 2, 3, -7, 0, 1, 0), 0, 20.41795294752225)
((1, -1, -2, 8, -5, -3, 1, -1), 0, 20.4381396361903)
((-2, 3, 2, -7, -12, -3, -2, -4), 0, 20.45722758604174)
((0, -6, 0, 6, -8, -2, 1, 0), 0, 20.478700032899443)
((-1, -3, -7, -6, 9, -1, -3, -3), 0, 20.50331018588471)
((0, 2, 0, 4, 19, 3, -3, -2), 0, 20.522631339771436)
((3, -3, 4, 19, -73, 2, 3, 2), 0, 20.54259280693842)
((-3, -4, -3, 3, 12, -2, -2, 0), 0, 20.563722575005887)
((0, -2, 0, 0, -14, -1, 0, -1), 0, 20.589398396308876)
((1, -1, -6, -21, 15, 5, -2, -3), 0, 20.607747961745414)
((-4, -3, -4, -2, 10, -5, -4, -2), 0, 20.62757144510668)
((-2, 4, -3, -4, 24, -2, -1, 0), 0, 20.646854967046387)
((0, -3, 0, 8, -11, -4, 1, -1), 0, 20.66725205250911)
((0, -2, 4, -2, -7, -1, 0, -3), 0, 20.68984262433795)
((1, 1, 0, -1, 3, 2, 0, 0), 0, 20.709195708361534)
((1, 0, 1, 3, -2, -3, -1, -2), 0, 20.727651897647945)
((-4, -5, -9, -16, -4, -5, -3, -2), 0, 20.74726498421454)
((1, 0, -1, 16, -5, 3, 5, 2), 0, 20.766273108723826)
((-2, -3, -2, -17, -1, -3, -3, -3), 0, 20.785935801038757)
((-2, -1, -5, 1, 2, 0, -4, -1), 0, 20.807496055772827)
((2, 0, 3, 3, -4, 10, 3, 1), 0, 20.826277818419012)
((-1, -1, 0, -9, 3, -3, -3, -3), 0, 20.847023284482123)
((-2, 2, 4, -9, -7, 4, 1, 0), 0, 20.86563798409081)
((-1, 1, 4, 10, 8, 2, -1, -2), 0, 20.885525327725794)
((-2, -7, -5, 10, -4, -10, -7, 1), 0, 20.907763527687134)
((-2, -1, -2, 4, -31, 1, -2, -12), 0, 20.927978725405953)
((4, 2, 1, -1, -12, 0, 3, 6), 0, 20.951044258020595)
((4, 1, -2, -9, -20, -5, 7, 6), 0, 20.971416825699656)
((-3, 4, 7, 2, -17, -3, -5, -2), 0, 20.990893068822558)
((2, -4, -5, -8, 7, -1, 2, 5), 0, 21.01449514177266)
((3, 0, 8, 19, -32, 14, 4, 7), 0, 21.03204531342565)
((-2, 0, -1, -9, 6, -8, 10, 20), 3, 21.052513671515296)
((-4, -5, -10, 7, -20, -2, -5, 0), 0, 21.072967775079555)
((5, 4, 8, 3, -2, 9, 28, 4), 0, 21.090816721584602)
((2, 1, 5, 4, 2, 0, 3, 0), 0, 21.11110262174933)
((-1, -2, -2, -16, -10, -5, -10, 2), 0, 21.131239134488027)
((2, 1, 1, 0, -1, 1, 0, 6), 1, 21.155883498334216)
((-1, -3, -3, 2, 9, -2, -8, -5), 1, 21.185469621040593)
((0, -3, -1, -1, -17, 15, -1, -1), 1, 21.205670564234026)
((2, 1, -4, 0, 64, -12, -4, -2), 1, 21.231154804715853)
((-2, -1, -4, -6, 19, 1, 0, 1), 1, 21.250186876827787)
((-9, 28, 12, 11, -89, 30, 8, -76), 1, 21.270219046440673)
((-11, -21, -17, -38, -74, -36, -20, 3), 1, 21.289658797978593)
((3, -1, 1, 10, 27, 0, 2, 26), 1, 21.313074991917684)
((-13, 22, -3, 1, 65, 9, 3, -15), 1, 21.334330199808534)
((-8, 25, -2, -3, 13, 1, -3, -3), 1, 21.353856048679773)
((-3, -11, -6, 0, 12, 1, 0, 71), 3, 21.37243995851363)
((-1, 1, -4, -9, -53, -9, -5, -13), 3, 21.39266598967174)
((-1, -4, 0, 2, 35, 10, 2, -4), 3, 21.41597555976096)
((-6, -1, -3, -18, -22, -13, -5, 3), 3, 21.436144002636517)
((-2, -13, 5, 5, -13, -5, 3, 5), 3, 21.455269014253954)
((-1, 7, -6, -4, -10, -5, -2, 3), 3, 21.474098672105434)
((2, -8, 1, 9, -91, 12, 9, 6), 3, 21.49260731804526)
((-2, -1, 0, -7, -2, -6, -1, 7), 3, 21.516474525167506)
((-4, 0, -3, 4, 20, 2, -4, -15), 3, 21.535730108237463)
((0, 1, 3, -5, -13, 1, 0, -7), 3, 21.555984078265325)
((6, 1, 6, 10, 12, 3, -1, -3), 3, 21.5755036551454)
((1, -3, -2, 0, -22, 3, 1, -1), 3, 21.596552457508686)
((-4, 0, 0, 0, 11, -4, -5, -9), 3, 21.617264282891888)
((0, -2, -1, 1, 3, 0, 0, -2), 3, 21.637241144946287)
((5, 3, 1, 0, 5, -7, -3, -4), 3, 21.65659707987495)
((2, -3, 2, 7, -1, -3, -1, 4), 3, 21.67936668854261)
((2, 0, -2, 5, 2, -5, -2, -4), 3, 21.698763106323366)
((-2, 3, 0, -2, 2, 0, 0, -8), 3, 21.720624986814563)
((-7, -5, -4, 3, -8, -4, -6, -2), 3, 21.738653540339453)
((-1, -4, -2, 0, -13, 0, -6, -30), 3, 21.758782070543937)
((4, 2, 10, 13, -71, 15, 10, -3), 3, 21.778889504050852)
((-1, 0, 2, -1, -2, 6, 1, -22), 3, 21.799628127941777)
((-4, 1, -3, -15, 5, -1, -2, 0), 3, 21.82260186141294)
((8, 3, 1, 7, -2, -1, -1, 8), 3, 21.84148112501276)
((-5, 0, -1, 0, 13, 2, -1, 1), 3, 21.86647101855426)
((2, -2, 1, -2, -6, -6, -1, -3), 3, 21.888231406824726)
((0, 1, 0, -2, -25, 10, 6, 11), 3, 21.90807313597848)
((-4, -5, -5, -5, 11, -7, -5, 18), 3, 21.932186091118346)
((-2, 1, 2, -4, 5, 0, 5, 1), 3, 21.950880616069185)
((0, -4, -2, -4, -10, -7, -5, -4), 3, 21.971202437637878)
((-1, -8, -3, -11, -9, -4, -1, -1), 3, 21.989459063568912)
((1, -1, 1, 6, 1, -2, -4, 4), 3, 22.009063027239257)
((-12, 0, -1, 2, 21, -4, -2, -4), 3, 22.033727347420985)
((-1, 1, 2, -4, -10, -4, 0, 15), 3, 22.0531779323982)
((-2, 1, -3, -12, -46, 0, -1, 7), 3, 22.07145736556985)
((-1, 1, -1, 2, 2, -6, -2, -2), 3, 22.092309455482834)
