((-2, -3, -3, -3, -7, 19, 31, 10), 0, 5.701810153669486e-07)
((-2, -3, -3, -3, -7, 19, 31, 10), 0, 0.0010981686355967428)
((-2, -3, -3, -3, -7, 19, 31, 10), 0, 0.00254870913869026)
((-2, -3, -3, -3, -7, 19, 31, 10), 0, 0.0038589851120035077)
((-2, 11, 1, 2, -20, 22, -13, -28), 0, 0.004976539902122727)
((-2, 11, 1, 2, -20, 22, -13, -28), 0, 0.005832381606188516)
((-2, 11, 1, 2, -20, 22, -13, -28), 0, 0.007813760634588662)
((-2, 11, 1, 2, -20, 22, -13, -28), 0, 0.008776226188528071)
((-2, 11, 1, 2, -20, 22, -13, -28), 0, 0.010097905782148659)
((-2, 11, 1, 2, -20, 22, -13, -28), 0, 0.011579806241087358)
((18, -17, -4, -8, 12, -6, 10, 23), 0, 0.013256708607281554)
((-2, 13, 0, -2, -27, 13, -19, -13), 0, 0.014387377560754212)
((-2, 13, 0, -2, -27, 13, -19, -13), 0, 0.015611556200747051)
((-2, 13, 0, -2, -27, 13, -19, -13), 0, 0.018493821233426976)
((-2, 13, 0, -2, -27, 13, -19, -13), 0, 0.020273356182387223)
((4, -16, 3, 1, 14, 2, 3, 15), 0, 0.0219143371446133)
((4, -16, 3, 1, 14, 2, 3, 15), 0, 0.02314421759475981)
((4, -16, 3, 1, 14, 2, 3, 15), 0, 0.024432256508473745)
((4, -16, 3, 1, 14, 2, 3, 15), 0, 0.02543862600059641)
((-12, -8, -2, -5, -15, -5, -11, 4), 0, 0.02773816603557131)
((-12, -8, -2, -5, -15, -5, -11, 4), 0, 0.028954362141349013)
((-12, -8, -2, -5, -15, -5, -11, 4), 0, 0.03009871543919048)
((-12, -8, -2, -5, -15, -5, -11, 4), 0, 0.03126245489155442)
((-12, -8, -2, -5, -15, -5, -11, 4), 0, 0.03250601968606974)
((-12, -8, -2, -5, -15, -5, -11, 4), 0, 0.03387673484701188)
((-12, -8, -2, -5, -15, -5, -11, 4), 0, 0.035405960330226034)
((-12, -8, -2, -5, -15, -5, -11, 4), 0, 0.036750447164461304)
((-12, -8, -2, -5, -15, -5, -11, 4), 0, 0.03760457832548099)
((-12, -8, -2, -5, -15, -5, -11, 4), 0, 0.038474674554930956)
((-12, -8, -2, -5, -15, -5, -11, 4), 0, 0.03934306024133482)
((-12, -8, -2, -5, -15, -5, -11, 4), 0, 0.040281008011613446)
((-12, -8, -2, -5, -15, -5, -11, 4), 0, 0.041436764929762254)
((-11, 15, 2, 1, -18, 15, -44, -54), 0, 0.04243857297376198)
((-11, 15, 2, 1, -18, 15, -44, -54), 0, 0.0434785831457913)
((-11, 15, 2, 1, -18, 15, -44, -54), 0, 0.04453455838625088)
((-11, 15, 2, 1, -18, 15, -44, -54), 0, 0.046986906933344126)
((-11, 15, 2, 1, -18, 15, -44, -54), 0, 0.04887021482710116)
((-10, -15, 1, -1, 38, 8, -14, -32), 0, 0.050701636248459796)
((3, -7, -4, -1, -24, -17, -17, 7), 0, 0.052238844265889095)
((3, -7, -4, -1, -24, -17, -17, 7), 0, 0.053251485749180795)
((3, -7, -4, -1, -24, -17, -17, 7), 0, 0.054357636918992674)
((3, -7, -4, -1, -24, -17, -17, 7), 0, 0.05519865391665892)
((3, -7, -4, -1, -24, -17, -17, 7), 0, 0.056517482605202674)
((3, -7, -4, -1, -24, -17, -17, 7), 0, 0.057388149015668)
((3, -7, -4, -1, -24, -17, -17, 7), 0, 0.058226885289272785)
((3, -7, -4, -1, -24, -17, -17, 7), 0, 0.059128341474567934)
((3, -7, -4, -1, -24, -17, -17, 7), 0, 0.06016093929339748)
((3, -7, -4, -1, -24, -17, -17, 7), 0, 0.061040728600108674)
((3, -7, -4, -1, -24, -17, -17, 7), 0, 0.062113809271029274)
((3, -7, -4, -1, -24, -17, -17, 7), 0, 0.06376619385356269)
((-2, -7, -6, -14, -2, 10, -11, -3), 0, 0.06584450365457521)
((-2, -7, -6, -14, -2, 10, -11, -3), 0, 0.06670775771184077)
((-2, -7, -6, -14, -2, 10, -11, -3), 0, 0.06816114912001113)
((-2, -7, -6, -14, -2, 10, -11, -3), 0, 0.06912931648410421)
((-2, -7, -6, -14, -2, 10, -11, -3), 0, 0.06996064040450922)
((-2, -7, -6, -14, -2, 10, -11, -3), 0, 0.07115231872662614)
((-7, -5, 0, 8, 56, 14, -7, -7), 0, 0.07225504881034582)
((-3, 12, -3, -25, -36, -10, 1, -7), 0, 0.07309606580801208)
((-3, 12, -3, -25, -36, -10, 1, -7), 0, 0.07395076715004713)
((-3, 12, -3, -25, -36, -10, 1, -7), 0, 0.0755934586553193)
((-3, 12, -3, -25, -36, -10, 1, -7), 0, 0.07664202154257913)
((-3, 12, -3, -25, -36, -10, 1, -7), 0, 0.07743172224886234)
((-3, 12, -3, -25, -36, -10, 1, -7), 0, 0.07871120844734578)
((-3, 12, -3, -25, -36, -10, 1, -7), 0, 0.07999354555090604)
((-3, 12, -3, -25, -36, -10, 1, -7), 0, 0.08121088201871449)
((-3, 12, -3, -25, -36, -10, 1, -7), 0, 0.08234326151523325)
((-3, 12, -3, -25, -36, -10, 1, -7), 0, 0.08333366593892563)
((-3, 12, -3, -25, -36, -10, 1, -7), 0, 0.08527285157218863)
((-3, 12, -3, -25, -36, -10, 1, -7), 0, 0.08674790985894291)
((-1, -9, -3, 11, 3, 2, -27, 3), 0, 0.0878660348300775)
((7, 10, 12, 25, 57, 11, 26, 9), 0, 0.0887201659910972)
((7, 10, 12, 25, 57, 11, 26, 9), 0, 0.08954179683424096)
((7, 10, 12, 25, 57, 11, 26, 9), 0, 0.09033092735950882)
((7, 10, 12, 25, 57, 11, 26, 9), 0, 0.0911559792887448)
((7, 10, 12, 25, 57, 11, 26, 9), 0, 0.09192002184933651)
((7, 10, 12, 25, 57, 11, 26, 9), 0, 0.09303187482930206)
((7, 10, 12, 25, 57, 11, 26, 9), 0, 0.09487469987096804)
((7, 10, 12, 25, 57, 11, 26, 9), 0, 0.09588220972512143)
((7, 10, 12, 25, 57, 11, 26, 9), 0, 0.09682243821946153)
((7, 10, 12, 25, 57, 11, 26, 9), 0, 0.09789893997647434)
((7, 10, 12, 25, 57, 11, 26, 9), 0, 0.0991761454508963)
((7, 10, 12, 25, 57, 11, 26, 9), 0, 0.10009071579954489)
((7, 10, 12, 25, 57, 11, 26, 9), 0, 0.10238056275725854)
((18, 60, -1, -19, 25, -23, -17, 2), 0, 0.10345250306614841)
((18, 60, -1, -19, 25, -23, -17, 2), 0, 0.104463434006394)
((18, 60, -1, -19, 25, -23, -17, 2), 0, 0.10555476046980634)
((18, 60, -1, -19, 25, -23, -17, 2), 0, 0.10647047118048567)
((18, 60, -1, -19, 25, -23, -17, 2), 0, 0.10735539211633517)
((18, 60, -1, -19, 25, -23, -17, 2), 0, 0.10845983274310095)
((4, -32, 8, 29, 77, 60, 53, 17), 0, 0.10970225717558553)
((8, 26, -8, -11, -72, -38, 10, -28), 0, 0.11081924178468938)
((8, 26, -8, -11, -72, -38, 10, -28), 0, 0.11188890136951778)
((8, 26, -8, -11, -72, -38, 10, -28), 0, 0.11383835026105737)
((8, 26, -8, -11, -72, -38, 10, -28), 0, 0.11480480708210436)
((8, 26, -8, -11, -72, -38, 10, -28), 0, 0.11609056527175682)
((8, 26, -8, -11, -72, -38, 10, -28), 0, 0.11751202654306662)
((8, 26, -8, -11, -72, -38, 10, -28), 0, 0.11948257213217481)
((8, 26, -8, -11, -72, -38, 10, -28), 0, 0.12027683428658097)
((8, 26, -8, -11, -72, -38, 10, -28), 0, 0.1219132538006841)
((0, 1, -9, -29, -26, -34, -9, 28), 0, 0.12416546881138354)
((-7, -16, -7, 0, 6, 4, -2, 1), 0, 0.12531609410039404)
((-7, -16, -7, 0, 6, 4, -2, 1), 0, 0.12642338563223668)
((-7, -16, -7, 0, 6, 4, -2, 1), 0, 0.12737045629876118)
((-7, -16, -7, 0, 6, 4, -2, 1), 0, 0.12819550822799713)
((-7, -16, -7, 0, 6, 4, -2, 1), 0, 0.12907985898283128)
((-7, -16, -7, 0, 6, 4, -2, 1), 0, 0.12994824466923513)
((-7, -16, -7, 0, 6, 4, -2, 1), 0, 0.1312493977463025)
((-25, -2, -3, -14, -34, 10, -48, -73), 0, 0.13242054955186622)
((22, -1, 5, 10, 34, 7, 3, 86), 0, 0.13537180648740554)
((22, -1, 5, 10, 34, 7, 3, 86), 0, 0.13636335127312868)
((22, -1, 5, 10, 34, 7, 3, 86), 0, 0.13729388669020753)
((22, -1, 5, 10, 34, 7, 3, 86), 0, 0.13829113328608433)
((22, -1, 5, 10, 34, 7, 3, 86), 0, 0.13925759010713132)
((22, -1, 5, 10, 34, 7, 3, 86), 0, 0.14023545054848563)
((22, -1, 5, 10, 34, 7, 3, 86), 0, 0.14112835401855026)
((22, -1, 5, 10, 34, 7, 3, 86), 0, 0.14199502916190804)
((22, -1, 5, 10, 34, 7, 3, 86), 0, 0.1439655747510162)
((22, -1, 5, 10, 34, 7, 3, 86), 0, 0.14494742645947808)
((22, -1, 5, 10, 34, 7, 3, 86), 0, 0.14610033247255005)
((-6, -7, -4, 2, 4, -24, 48, -12), 0, 0.14718595712580873)
((-6, -7, -4, 2, 4, -24, 48, -12), 0, 0.14816267720513232)
((-6, -7, -4, 2, 4, -24, 48, -12), 0, 0.14913483583633297)
((-6, -7, -4, 2, 4, -24, 48, -12), 0, 0.15080318548729665)
((-6, -7, -4, 2, 4, -24, 48, -12), 0, 0.15221267295728375)
((-6, -7, -4, 2, 4, -24, 48, -12), 0, 0.15384510120427933)
((-6, -7, -4, 2, 4, -24, 48, -12), 0, 0.1546804163917919)
((-6, -7, -4, 2, 4, -24, 48, -12), 0, 0.15549007343361296)
((-6, -7, -4, 2, 4, -24, 48, -12), 0, 0.15637499436946248)
((-6, -7, -4, 2, 4, -24, 48, -12), 0, 0.1573614075260473)
((-6, -7, -4, 2, 4, -24, 48, -12), 0, 0.15836948756121605)
((-6, -7, -4, 2, 4, -24, 48, -12), 0, 0.15930344406438712)
((-6, -7, -4, 2, 4, -24, 48, -12), 0, 0.160596044426224)
((-6, -7, -4, 2, 4, -24, 48, -12), 0, 0.16201123370636475)
((-2, -9, -2, -4, -11, 10, -7, -66), 0, 0.16368699571052822)
((-2, -9, -2, -4, -11, 10, -7, -66), 0, 0.16454397777662474)
((-2, -9, -2, -4, -11, 10, -7, -66), 0, 0.16556517197514695)
((-2, -9, -2, -4, -11, 10, -7, -66), 0, 0.16659320834585356)
((-2, -9, -2, -4, -11, 10, -7, -66), 0, 0.16860993859720647)
((-2, -9, -2, -4, -11, 10, -7, -66), 0, 0.17014201498549744)
((-7, 0, 4, 14, 26, 15, -9, -39), 0, 0.17126470140475497)
((-7, 0, 4, 14, 26, 15, -9, -39), 0, 0.17253449452597716)
((-7, 0, 4, 14, 26, 15, -9, -39), 0, 0.17340573111745786)
((-7, 0, 4, 14, 26, 15, -9, -39), 0, 0.1743676264903819)
((-7, 0, 4, 14, 26, 15, -9, -39), 0, 0.17528219683903049)
((-7, 0, 4, 14, 26, 15, -9, -39), 0, 0.17646874353200911)
((-7, 0, 4, 14, 26, 15, -9, -39), 0, 0.17763647425148063)
((-7, 0, 4, 14, 26, 15, -9, -39), 0, 0.17851398283413036)
((-7, 0, 4, 14, 26, 15, -9, -39), 0, 0.17932535041899753)
((-7, 0, 4, 14, 26, 15, -9, -39), 0, 0.18016123578752546)
((-7, 0, 4, 14, 26, 15, -9, -39), 0, 0.18165739077184834)
((-7, 0, 4, 14, 26, 15, -9, -39), 0, 0.18267516388427835)
((-7, 0, 4, 14, 26, 15, -9, -39), 0, 0.18423289841826085)
((10, -11, -7, -10, -8, -6, -7, 21), 0, 0.18612304848420227)
((10, -11, -7, -10, -8, -6, -7, 21), 0, 0.18715165503592426)
((10, -11, -7, -10, -8, -6, -7, 21), 0, 0.18827434145518177)
((10, -11, -7, -10, -8, -6, -7, 21), 0, 0.18918492053672278)
((10, -11, -7, -10, -8, -6, -7, 21), 0, 0.19070217221861424)
((10, -11, -7, -10, -8, -6, -7, 21), 0, 0.1920363957945729)
((-6, -8, -1, 6, 19, 2, 31, 4), 0, 0.19302109840811163)
((-6, -8, -1, 6, 19, 2, 31, 4), 0, 0.19390031753380746)
((-6, -8, -1, 6, 19, 2, 31, 4), 0, 0.19497339820472806)
((-6, -8, -1, 6, 19, 2, 31, 4), 0, 0.19582581882270164)
((-6, -8, -1, 6, 19, 2, 31, 4), 0, 0.19660183518461605)
((-6, -8, -1, 6, 19, 2, 31, 4), 0, 0.19739609733902222)
((-6, -8, -1, 6, 19, 2, 31, 4), 0, 0.19854216117990978)
((-6, -8, -1, 6, 19, 2, 31, 4), 0, 0.20003375471610974)
((-6, -8, -1, 6, 19, 2, 31, 4), 0, 0.20197921234054175)
((-6, -8, -1, 6, 19, 2, 31, 4), 0, 0.203176022291797)
((-6, -8, -1, 6, 19, 2, 31, 4), 0, 0.20428046291856275)
((-6, -8, -1, 6, 19, 2, 31, 4), 0, 0.20638671158932825)
((3, 2, -2, -10, -7, -12, 1, -16), 0, 0.20767018905491927)
((-27, -15, -4, -2, -10, 2, -8, -74), 0, 0.20870905886491783)
((-27, -15, -4, -2, -10, 2, -8, -74), 0, 0.2100449929839226)
((-27, -15, -4, -2, -10, 2, -8, -74), 0, 0.21248308700563168)
((-27, -15, -4, -2, -10, 2, -8, -74), 0, 0.21452262449759926)
((-27, -15, -4, -2, -10, 2, -8, -74), 0, 0.21554267833409071)
((-27, -15, -4, -2, -10, 2, -8, -74), 0, 0.21641790619267898)
((-27, -15, -4, -2, -10, 2, -8, -74), 0, 0.2189557818920773)
((-27, -15, -4, -2, -10, 2, -8, -74), 0, 0.22060075412141092)
((-27, -15, -4, -2, -10, 2, -8, -74), 0, 0.22214480431102462)
((-4, -7, -4, -7, 9, -11, -21, -49), 0, 0.2240167085844743)
((-6, 5, 0, 3, 7, 18, 47, -37), 0, 0.22524829957766693)
((-6, 5, 0, 3, 7, 18, 47, -37), 0, 0.22656028609402626)
((-6, 5, 0, 3, 7, 18, 47, -37), 0, 0.22911868830997778)
((-6, 5, 0, 3, 7, 18, 47, -37), 0, 0.23023054128994333)
((3, 24, 1, 5, 12, 5, 12, -29), 0, 0.2312830954443107)
((3, 24, 1, 5, 12, 5, 12, -29), 0, 0.23218626217265195)
((3, 24, 1, 5, 12, 5, 12, -29), 0, 0.23338934411507622)
((3, 24, 1, 5, 12, 5, 12, -29), 0, 0.23496361389850437)
((3, 24, 1, 5, 12, 5, 12, -29), 0, 0.23624766154511073)
((3, 24, 1, 5, 12, 5, 12, -29), 0, 0.23736350579218385)
((3, 24, 1, 5, 12, 5, 12, -29), 0, 0.23871084353149594)
((3, 24, 1, 5, 12, 5, 12, -29), 0, 0.2394515086704576)
((3, 24, 1, 5, 12, 5, 12, -29), 0, 0.2402708587895399)
((3, 24, 1, 5, 12, 5, 12, -29), 0, 0.24112099868345205)
((3, 24, 1, 5, 12, 5, 12, -29), 0, 0.2419015764934894)
((3, 24, 1, 5, 12, 5, 12, -29), 0, 0.24269412810484944)
((3, 24, 1, 5, 12, 5, 12, -29), 0, 0.2435454083607923)
((3, 24, 1, 5, 12, 5, 12, -29), 0, 0.24458484835180624)
((3, 24, 1, 5, 12, 5, 12, -29), 0, 0.2455313488373154)
((3, 24, 1, 5, 12, 5, 12, -29), 0, 0.24628740886369196)
((3, 24, 1, 5, 12, 5, 12, -29), 0, 0.2476803610842334)
((3, 24, 1, 5, 12, 5, 12, -29), 0, 0.24857611545937489)
((3, 24, 1, 5, 12, 5, 12, -29), 0, 0.24943822915460973)
((3, 24, 1, 5, 12, 5, 12, -29), 0, 0.2512246062757544)
((3, 24, 1, 5, 12, 5, 12, -29), 0, 0.25274470886272266)
((8, -3, 0, -1, -8, -21, 53, 62), 0, 0.2541051607653882)
((0, 2, 1, -1, 3, 21, 4, 10), 0, 0.25512521460187965)
((0, 2, 1, -1, 3, 21, 4, 10), 0, 0.25681808203650414)
((0, 2, 1, -1, 3, 21, 4, 10), 0, 0.2576602393962011)
((0, 2, 1, -1, 3, 21, 4, 10), 0, 0.25875156585961345)
((-7, -8, -5, -4, 34, -23, -14, -51), 0, 0.2598862260801937)
((10, -5, 1, 2, -26, 12, 15, 102), 0, 0.2609427715016686)
((10, -5, 1, 2, -26, 12, 15, 102), 0, 0.26191664067591536)
((10, -5, 1, 2, -26, 12, 15, 102), 0, 0.26268866577072225)
((10, -5, 1, 2, -26, 12, 15, 102), 0, 0.2634219185564841)
((10, -5, 1, 2, -26, 12, 15, 102), 0, 0.26417170659169165)
((10, -5, 1, 2, -26, 12, 15, 102), 0, 0.2662705429092574)
((10, -5, 1, 2, -26, 12, 15, 102), 0, 0.26782542653816305)
((10, -5, 1, 2, -26, 12, 15, 102), 0, 0.2689070599243142)
((10, -5, 1, 2, -26, 12, 15, 102), 0, 0.26985356040982333)
((10, -5, 1, 2, -26, 12, 15, 102), 0, 0.27097111519994255)
((10, -5, 1, 2, -26, 12, 15, 102), 0, 0.27216792515119775)
((10, -5, 1, 2, -26, 12, 15, 102), 0, 0.27318569826362776)
((10, -5, 1, 2, -26, 12, 15, 102), 0, 0.27430040214867013)
((5, 29, 4, 2, -13, 0, -7, 25), 0, 0.2757241441440414)
((5, 29, 4, 2, -13, 0, -7, 25), 0, 0.27656687168475375)
((5, 29, 4, 2, -13, 0, -7, 25), 0, 0.2774232835698349)
((5, 29, 4, 2, -13, 0, -7, 25), 0, 0.27848153953435595)
((5, 29, 4, 2, -13, 0, -7, 25), 0, 0.27938641680574333)
((5, 29, 4, 2, -13, 0, -7, 25), 0, 0.28018467022725707)
((5, 29, 4, 2, -13, 0, -7, 25), 0, 0.2813774889114047)
((5, 29, 4, 2, -13, 0, -7, 25), 0, 0.282428332522726)
((5, 29, 4, 2, -13, 0, -7, 25), 0, 0.2834113245932186)
((5, 29, 4, 2, -13, 0, -7, 25), 0, 0.2853202906326672)
((5, 29, 4, 2, -13, 0, -7, 25), 0, 0.2861755621557176)
((5, 29, 4, 2, -13, 0, -7, 25), 0, 0.2871534225970719)
((5, 29, 4, 2, -13, 0, -7, 25), 0, 0.2882675563010989)
((5, 29, 4, 2, -13, 0, -7, 25), 0, 0.2898087555856358)
((2, -4, -1, -1, -23, -8, -1, -2), 0, 0.29111161920574924)
((-6, -11, -2, -2, 12, -7, -24, 32), 0, 0.29193325004889303)
((-6, -11, -2, -2, 12, -7, -24, 32), 0, 0.2926978627905001)
((-6, -11, -2, -2, 12, -7, -24, 32), 0, 0.2935514237705044)
((-6, -11, -2, -2, 12, -7, -24, 32), 0, 0.2949939817393828)
((-6, -11, -2, -2, 12, -7, -24, 32), 0, 0.2962318447237444)
((2, 4, -3, 2, -10, -4, 60, 10), 0, 0.29743777757124557)
((-13, -15, -3, -1, 4, -31, -21, -17), 0, 0.29827879456891176)
((-13, -15, -3, -1, 4, -31, -21, -17), 0, 0.29921845288223653)
((-13, -15, -3, -1, 4, -31, -21, -17), 0, 0.30013815486002343)
((-13, -15, -3, -1, 4, -31, -21, -17), 0, 0.30135035969869356)
((-13, -15, -3, -1, 4, -31, -21, -17), 0, 0.30223414027251233)
((-13, -15, -3, -1, 4, -31, -21, -17), 0, 0.30310765758805447)
((-12, 6, -2, -3, -22, -7, -29, -92), 0, 0.30496074588799704)
((35, -4, -1, -2, 5, -8, -6, 97), 0, 0.306045230179225)
((35, -4, -1, -2, 5, -8, -6, 97), 0, 0.30718103076183595)
((35, -4, -1, -2, 5, -8, -6, 97), 0, 0.30801577576833317)
((35, -4, -1, -2, 5, -8, -6, 97), 0, 0.30874446710597214)
((35, -4, -1, -2, 5, -8, -6, 97), 0, 0.30950508858047165)
((35, -4, -1, -2, 5, -8, -6, 97), 0, 0.3104915017370565)
((35, -4, -1, -2, 5, -8, -6, 97), 0, 0.31147164290247226)
((-4, 18, 4, 5, 61, 24, 17, -12), 0, 0.31268669864621923)
((-8, -16, -3, -4, -9, 11, -4, -35), 0, 0.3141976783369416)
((-8, -16, -3, -4, -9, 11, -4, -35), 0, 0.3153021189637074)
((-8, -16, -3, -4, -9, 11, -4, -35), 0, 0.3161836188134647)
((-8, -16, -3, -4, -9, 11, -4, -35), 0, 0.31727095400976946)
((-8, -16, -3, -4, -9, 11, -4, -35), 0, 0.31850368536499285)
((-8, -16, -3, -4, -9, 11, -4, -35), 0, 0.31932246530305974)
((-8, -16, -3, -4, -9, 11, -4, -35), 0, 0.3202062458768785)
((-8, -16, -3, -4, -9, 11, -4, -35), 0, 0.32101704328073033)
((-8, -16, -3, -4, -9, 11, -4, -35), 0, 0.321950429602886)
((-8, -16, -3, -4, -9, 11, -4, -35), 0, 0.32410457347894234)
((-8, -16, -3, -4, -9, 11, -4, -35), 0, 0.32509497790263475)
((-8, -16, -3, -4, -9, 11, -4, -35), 0, 0.330527662617051)
((-8, -16, -3, -4, -9, 11, -4, -35), 0, 0.3315100845065283)
((-8, -16, -3, -4, -9, 11, -4, -35), 0, 0.33236535602957873)
((-8, -16, -3, -4, -9, 11, -4, -35), 0, 0.33480402023230316)
((1, -1, -3, -4, 2, -1, 4, 73), 0, 0.3359882862012203)
((-20, -6, -3, -1, -22, -26, -17, -39), 0, 0.33685325080153194)
((-20, -6, -3, -1, -22, -26, -17, -39), 0, 0.33764694277492274)
((-20, -6, -3, -1, -22, -26, -17, -39), 0, 0.33852787244366467)
((-20, -6, -3, -1, -22, -26, -17, -39), 0, 0.3393318276753321)
((-20, -6, -3, -1, -22, -26, -17, -39), 0, 0.3400787648054628)
((-20, -6, -3, -1, -22, -26, -17, -39), 0, 0.34114215239912216)
((-4, -4, -4, -7, -53, -12, -9, -3), 0, 0.3421245742885994)
((15, 5, 8, 22, 101, 77, -12, 22), 0, 0.3436845895466434)
((15, 5, 8, 22, 101, 77, -12, 22), 0, 0.3446151249637222)
((15, 5, 8, 22, 101, 77, -12, 22), 0, 0.34565399477372083)
((15, 5, 8, 22, 101, 77, -12, 22), 0, 0.34647562561686457)
((15, 5, 8, 22, 101, 77, -12, 22), 0, 0.34735826582865265)
((15, 5, 8, 22, 101, 77, -12, 22), 0, 0.34873639334279455)
((-9, -2, 1, 2, 2, 9, -10, 59), 0, 0.3511123376338286)
((-9, -2, 1, 2, 2, 9, -10, 59), 0, 0.35289016203974277)
((-9, -2, 1, 2, 2, 9, -10, 59), 0, 0.3536433711610425)
((-9, -2, 1, 2, 2, 9, -10, 59), 0, 0.35438973811015784)
((-9, -2, 1, 2, 2, 9, -10, 59), 0, 0.3552678168738229)
((-9, -2, 1, 2, 2, 9, -10, 59), 0, 0.35644581085157107)
((-11, -11, -4, -7, -27, -14, -2, -56), 0, 0.3575542427454444)
((-11, -11, -4, -7, -27, -14, -2, -56), 0, 0.3583422329086815)
((-11, -11, -4, -7, -27, -14, -2, -56), 0, 0.35906978388428973)
((-11, -11, -4, -7, -27, -14, -2, -56), 0, 0.3598150104713744)
((-11, -11, -4, -7, -27, -14, -2, -56), 0, 0.3605921671953195)
((-11, -11, -4, -7, -27, -14, -2, -56), 0, 0.36212310322157976)
((-11, -11, -4, -7, -27, -14, -2, -56), 0, 0.363150569411271)
((-11, -11, -4, -7, -27, -14, -2, -56), 0, 0.36432286157886545)
((-11, -11, -4, -7, -27, -14, -2, -56), 0, 0.36543186365375413)
((-11, -11, -4, -7, -27, -14, -2, -56), 0, 0.3662495032297904)
((-11, -11, -4, -7, -27, -14, -2, -56), 0, 0.368035880350935)
((-11, -11, -4, -7, -27, -14, -2, -56), 0, 0.36905308328234965)
((-11, -11, -4, -7, -27, -14, -2, -56), 0, 0.3698199767480182)
((1, -20, -3, 0, 3, -19, 9, -14), 0, 0.371620608394547)
((1, -20, -3, 0, 3, -19, 9, -14), 0, 0.3724815817277511)
((1, -20, -3, 0, 3, -19, 9, -14), 0, 0.3733927309903075)
((1, -20, -3, 0, 3, -19, 9, -14), 0, 0.3743187049592634)
((1, -20, -3, 0, 3, -19, 9, -14), 0, 0.375329635899509)
((1, -20, -3, 0, 3, -19, 9, -14), 0, 0.37627784692806426)
((1, -20, -3, 0, 3, -19, 9, -14), 0, 0.3773982526232603)
((1, -20, -3, 0, 3, -19, 9, -14), 0, 0.3786720370115901)
((1, -20, -3, 0, 3, -19, 9, -14), 0, 0.3796356429275602)
((-4, -6, -1, -2, -8, -9, -13, -25), 0, 0.38085468993841476)
((-4, -6, -1, -2, -8, -9, -13, -25), 0, 0.3816215834040833)
((-4, -6, -1, -2, -8, -9, -13, -25), 0, 0.38244321424722705)
((-4, -6, -1, -2, -8, -9, -13, -25), 0, 0.3839319568783502)
((-4, -6, -1, -2, -8, -9, -13, -25), 0, 0.38506718727994577)
((-4, -6, -1, -2, -8, -9, -13, -25), 0, 0.3861151799861902)
((-19, -5, -1, 2, 20, -26, -60, -81), 0, 0.3870861982553601)
((13, 0, -7, -6, -28, -10, 13, 46), 0, 0.3878610742552438)
((13, 0, -7, -6, -28, -10, 13, 46), 0, 0.3886222659107587)
((13, 0, -7, -6, -28, -10, 13, 46), 0, 0.38973639961478573)
((13, 0, -7, -6, -28, -10, 13, 46), 0, 0.3905625919060524)
((13, 0, -7, -6, -28, -10, 13, 46), 0, 0.3915358908992838)
((13, 0, -7, -6, -28, -10, 13, 46), 0, 0.3926141031993427)
((13, 0, -7, -6, -28, -10, 13, 46), 0, 0.394530481591991)
((0, -17, -2, -2, -20, -15, 33, 16), 0, 0.39566172072647904)
((0, -17, -2, -2, -20, -15, 33, 16), 0, 0.39649076392282256)
((0, -17, -2, -2, -20, -15, 33, 16), 0, 0.397221735984523)
((0, -17, -2, -2, -20, -15, 33, 16), 0, 0.3988302166288732)
((0, -17, -2, -2, -20, -15, 33, 16), 0, 0.39975562041681373)
((0, -17, -2, -2, -20, -15, 33, 16), 0, 0.40218060027516933)
((-2, 27, 3, -1, -1, 26, -3, -20), 0, 0.40321718936110645)
((-11, -26, -4, -4, -9, -9, -62, -56), 0, 0.4040530747296344)
((-11, -26, -4, -4, -9, -9, -62, -56), 0, 0.4047675115418892)
((-11, -26, -4, -4, -9, -9, -62, -56), 0, 0.4055600631532493)
((-11, -26, -4, -4, -9, -9, -62, -56), 0, 0.40651397599195815)
((-11, -26, -4, -4, -9, -9, -62, -56), 0, 0.4078692962654854)
((-11, -26, -4, -4, -9, -9, -62, -56), 0, 0.409197247850275)
((1, -9, -3, -5, -13, -1, 6, -17), 0, 0.4104368213776828)
((1, -9, -3, -5, -13, -1, 6, -17), 0, 0.4116712632759522)
((1, -9, -3, -5, -13, -1, 6, -17), 0, 0.41275745811022624)
((1, -9, -3, -5, -13, -1, 6, -17), 0, 0.41360132601296934)
((1, -9, -3, -5, -13, -1, 6, -17), 0, 0.4144280884852514)
((1, -9, -3, -5, -13, -1, 6, -17), 0, 0.41517046416725917)
((1, -9, -3, -5, -13, -1, 6, -17), 0, 0.4182009762639345)
((1, -9, -3, -5, -13, -1, 6, -17), 0, 0.4195500245462927)
((1, -9, -3, -5, -13, -1, 6, -17), 0, 0.4203505586918679)
((1, -9, -3, -5, -13, -1, 6, -17), 0, 0.4212873661001158)
((1, -9, -3, -5, -13, -1, 6, -17), 0, 0.4221899626474417)
((1, -9, -3, -5, -13, -1, 6, -17), 0, 0.42296654919037147)
((1, -9, -3, -5, -13, -1, 6, -17), 0, 0.4241069112211054)
((4, 0, 0, 3, 58, 11, -5, 3), 0, 0.4250933243776902)
((4, 0, 0, 3, 58, 11, -5, 3), 0, 0.42736207463783527)
((4, 0, 0, 3, 58, 11, -5, 3), 0, 0.4290441086331678)
((4, 0, 0, 3, 58, 11, -5, 3), 0, 0.4308875038558491)
((4, 0, 0, 3, 58, 11, -5, 3), 0, 0.43243269440749355)
((-5, -6, -4, -3, -17, -13, -15, 10), 0, 0.4339043316081556)
((-5, -6, -4, -3, -17, -13, -15, 10), 0, 0.43506522015544274)
((-5, -6, -4, -3, -17, -13, -15, 10), 0, 0.43670791166071493)
((-5, -6, -4, -3, -17, -13, -15, 10), 0, 0.4375483584773658)
((-5, -6, -4, -3, -17, -13, -15, 10), 0, 0.4387993356250809)
((-5, -6, -4, -3, -17, -13, -15, 10), 0, 0.43972759031809827)
((-5, -6, -4, -3, -17, -13, -15, 10), 0, 0.4405184313864122)
((-5, -6, -4, -3, -17, -13, -15, 10), 0, 0.4413104128167569)
((-5, -6, -4, -3, -17, -13, -15, 10), 0, 0.4421115171433475)
((-5, -6, -4, -3, -17, -13, -15, 10), 0, 0.4429377094346142)
((-5, -6, -4, -3, -17, -13, -15, 10), 0, 0.4439053066176919)
((-5, -6, -4, -3, -17, -13, -15, 10), 0, 0.4472231899461122)
((-1, -1, -1, -4, -5, 22, -73, -68), 0, 0.44828543717774083)
((-1, -1, -1, -4, -5, 22, -73, -68), 0, 0.4491344367096222)
((-1, -1, -1, -4, -5, 22, -73, -68), 0, 0.45030387797213983)
((-1, -1, -1, -4, -5, 22, -73, -68), 0, 0.45163354009997553)
((-1, -1, -1, -4, -5, 22, -73, -68), 0, 0.45264219031615965)
((-1, -1, -1, -4, -5, 22, -73, -68), 0, 0.4540288705455321)
((-16, 13, -1, -3, -6, 5, 10, -83), 0, 0.456028495366424)
((-16, 13, -1, -3, -6, 5, 10, -83), 0, 0.45697898711904067)
((-16, 13, -1, -3, -6, 5, 10, -83), 0, 0.4577789510836005)
((-16, 13, -1, -3, -6, 5, 10, -83), 0, 0.45857207287597596)
((-16, 13, -1, -3, -6, 5, 10, -83), 0, 0.4593589226771823)
((-16, 13, -1, -3, -6, 5, 10, -83), 0, 0.4602563875953699)
((-16, 13, -1, -3, -6, 5, 10, -83), 0, 0.4616966648401868)
((-11, 2, -4, -1, -3, 13, 13, -38), 0, 0.462780008769384)
((-11, 2, -4, -1, -3, 13, 13, -38), 0, 0.46484121313993554)
((-11, 2, -4, -1, -3, 13, 13, -38), 0, 0.4657426693252307)
((-11, 2, -4, -1, -3, 13, 13, -38), 0, 0.46684311868488887)
((-11, 2, -4, -1, -3, 13, 13, -38), 0, 0.4684909418192994)
((-11, 2, -4, -1, -3, 13, 13, -38), 0, 0.4696649445299399)
((-1, -3, 3, 12, 13, 17, -5, 20), 0, 0.47063368207504835)
((-1, -3, 3, 12, 13, 17, -5, 20), 0, 0.4715425506135433)
((-1, -3, 3, 12, 13, 17, -5, 20), 0, 0.47231742661342696)
((-1, -3, 3, 12, 13, 17, -5, 20), 0, 0.4740365223747583)
((-1, -3, 3, 12, 13, 17, -5, 20), 0, 0.4748410477874411)
((-1, -3, 3, 12, 13, 17, -5, 20), 0, 0.4759272426217151)
((-1, -3, 3, 12, 13, 17, -5, 20), 0, 0.47691821722642286)
((-1, -3, 3, 12, 13, 17, -5, 20), 0, 0.4779063409260538)
((-1, -3, 3, 12, 13, 17, -5, 20), 0, 0.47886823629897785)
((-1, -3, 3, 12, 13, 17, -5, 20), 0, 0.47984609674033213)
((-1, -3, 3, 12, 13, 17, -5, 20), 0, 0.48100356420152707)
((-1, -3, 3, 12, 13, 17, -5, 20), 0, 0.4822266024794892)
((5, 6, 3, 2, 27, 15, 49, -3), 0, 0.48493211139740533)
((-6, -2, -1, 0, -5, -21, 11, 8), 0, 0.48579650581670164)
((-6, -2, -1, 0, -5, -21, 11, 8), 0, 0.4867390150351032)
((-6, -2, -1, 0, -5, -21, 11, 8), 0, 0.48763705013430614)
((-6, -2, -1, 0, -5, -21, 11, 8), 0, 0.48854363794873956)
((-6, -2, -1, 0, -5, -21, 11, 8), 0, 0.4893789531362522)
((-6, -2, -1, 0, -5, -21, 11, 8), 0, 0.4901635222133971)
((-6, -2, -1, 0, -5, -21, 11, 8), 0, 0.49138542012932845)
((3, 24, -4, -10, -28, -26, -7, 19), 0, 0.4924220092152656)
((3, 24, -4, -10, -28, -26, -7, 19), 0, 0.4939575066896488)
((3, 24, -4, -10, -28, -26, -7, 19), 0, 0.4950140521111237)
((3, 24, -4, -10, -28, -26, -7, 19), 0, 0.49621542351050185)
((3, 24, -4, -10, -28, -26, -7, 19), 0, 0.4972599951306541)
((3, 24, -4, -10, -28, -26, -7, 19), 0, 0.4989785207109701)
((3, 24, -4, -10, -28, -26, -7, 19), 0, 0.5003817361897882)
((3, 24, -4, -10, -28, -26, -7, 19), 0, 0.5013972285781567)
((3, 24, -4, -10, -28, -26, -7, 19), 0, 0.5029806212578307)
((3, 24, -4, -10, -28, -26, -7, 19), 0, 0.5040018154563529)
((3, 24, -4, -10, -28, -26, -7, 19), 0, 0.5048633589705724)
((3, 24, -4, -10, -28, -26, -7, 19), 0, 0.5058879742551868)
((7, -13, 1, 2, 36, 11, -8, 23), 0, 0.507056845336689)
((-4, 0, 1, 3, -12, -6, 19, -22), 0, 0.5078613707493718)
((-4, 0, 1, 3, -12, -6, 19, -22), 0, 0.5086801506874388)
((-4, 0, 1, 3, -12, -6, 19, -22), 0, 0.5094789742899678)
((-4, 0, 1, 3, -12, -6, 19, -22), 0, 0.5102829295216352)
((-4, 0, 1, 3, -12, -6, 19, -22), 0, 0.511918778854723)
((-4, 0, 1, 3, -12, -6, 19, -22), 0, 0.5136749363820532)
((-4, 0, 1, 3, -12, -6, 19, -22), 0, 0.5153039435429566)
((3, 0, 0, -3, -9, 7, -31, 3), 0, 0.5176701947567294)
((2, -26, -1, -2, -2, -6, 6, 12), 0, 0.5187318718073427)
((2, -26, -1, -2, -2, -6, 6, 12), 0, 0.5196874951890977)
((2, -26, -1, -2, -2, -6, 6, 12), 0, 0.5211728167341286)
((0, 26, -7, -1, 0, -3, -12, -17), 0, 0.5222664239216024)
((-9, -2, 0, -1, -5, 6, 18, -10), 0, 0.5231051601952071)
((-9, -2, 0, -1, -5, 6, 18, -10), 0, 0.5238994223496133)
((-9, -2, 0, -1, -5, 6, 18, -10), 0, 0.524616710066945)
((-9, -2, 0, -1, -5, 6, 18, -10), 0, 0.5255050520888866)
((-9, -2, 0, -1, -5, 6, 18, -10), 0, 0.5263004546053236)
((-9, -2, 0, -1, -5, 6, 18, -10), 0, 0.5270759007862226)
((-9, -2, 0, -1, -5, 6, 18, -10), 0, 0.527935733757396)
((-9, -2, 0, -1, -5, 6, 18, -10), 0, 0.5290076740662858)
((0, -5, -4, -4, 11, -3, -14, -39), 0, 0.5313100650063376)
((0, -5, -4, -4, 11, -3, -14, -39), 0, 0.534177505332618)
((0, -5, -4, -4, 11, -3, -14, -39), 0, 0.5356160720343888)
((0, -5, -4, -4, 11, -3, -14, -39), 0, 0.5368448121225046)
((0, -5, -4, -4, 11, -3, -14, -39), 0, 0.5377531104799841)
((0, -5, -4, -4, 11, -3, -14, -39), 0, 0.5386237768904494)
((0, -5, -4, -4, 11, -3, -14, -39), 0, 0.5394545306298391)
((0, -5, -4, -4, 11, -3, -14, -39), 0, 0.5408657286428723)
((0, -5, -4, -4, 11, -3, -14, -39), 0, 0.5416902103910929)
((0, -5, -4, -4, 11, -3, -14, -39), 0, 0.542490744536668)
((0, -5, -4, -4, 11, -3, -14, -39), 0, 0.5436219836711561)
((-9, -7, -1, -3, -7, -2, -8, -80), 0, 0.5446118179138331)
((2, 4, -3, 2, -3, -5, 13, -1), 0, 0.5454271767658079)
((2, 4, -3, 2, -3, -5, 13, -1), 0, 0.5462066142138144)
((2, 4, -3, 2, -3, -5, 13, -1), 0, 0.5471622375955695)
((2, 4, -3, 2, -3, -5, 13, -1), 0, 0.5484850575512208)
((2, 4, -3, 2, -3, -5, 13, -1), 0, 0.5515902633609092)
((2, 4, -3, 2, -3, -5, 13, -1), 0, 0.5534296673164829)
((-2, -3, -2, -4, -8, 9, -84, 16), 0, 0.5543784485260536)
((-2, -3, -2, -4, -8, 9, -84, 16), 0, 0.5552097724464585)
((-2, -3, -2, -4, -8, 9, -84, 16), 0, 0.5562418000842727)
((-2, -3, -2, -4, -8, 9, -84, 16), 0, 0.5570759749097546)
((-2, -3, -2, -4, -8, 9, -84, 16), 0, 0.557824052401916)
((-2, -3, -2, -4, -8, 9, -84, 16), 0, 0.5587887986799169)
((-2, -3, -2, -4, -8, 9, -84, 16), 0, 0.5599069236510515)
((-2, -3, -2, -4, -8, 9, -84, 16), 0, 0.5606897821851503)
((-2, -3, -2, -4, -8, 9, -84, 16), 0, 0.5614384298583271)
((-2, -3, -2, -4, -8, 9, -84, 16), 0, 0.5621625597478431)
((-2, -3, -2, -4, -8, 9, -84, 16), 0, 0.5628929616285282)
((-2, -3, -2, -4, -8, 9, -84, 16), 0, 0.5636461707498279)
((-2, -3, -2, -4, -8, 9, -84, 16), 0, 0.5646582420521042)
((-2, -3, -2, -4, -8, 9, -84, 16), 0, 0.5658065866170533)
((-2, -3, -2, -4, -8, 9, -84, 16), 0, 0.568068494705014)
((-8, -13, -7, -6, 4, -14, 62, -3), 0, 0.5697060545811479)
((2, 9, 1, -2, -9, -1, 0, 2), 0, 0.5706143529386274)
((2, 9, 1, -2, -9, -1, 0, 2), 0, 0.5714490979451247)
((2, 9, 1, -2, -9, -1, 0, 2), 0, 0.5723077905542673)
((2, 9, 1, -2, -9, -1, 0, 2), 0, 0.5734145119050945)
((2, 9, 1, -2, -9, -1, 0, 2), 0, 0.5744402675517396)
((1, 2, 1, 1, 39, 11, -1, -12), 0, 0.5754340930615243)
((1, 2, 1, 1, 39, 11, -1, -12), 0, 0.5762363377501455)
((1, 2, 1, 1, 39, 11, -1, -12), 0, 0.5770152050171368)
((1, 2, 1, 1, 39, 11, -1, -12), 0, 0.577845388575511)
((1, 2, 1, 1, 39, 11, -1, -12), 0, 0.5790005753126445)
((1, 2, 1, 1, 39, 11, -1, -12), 0, 0.5797577757010518)
((1, 2, 1, 1, 39, 11, -1, -12), 0, 0.5807943647869889)
((1, 2, 1, 1, 39, 11, -1, -12), 0, 0.5820550350119652)
((1, -1, -1, 0, -5, -5, -1, -5), 0, 0.5848928259254466)
((1, -1, -1, 0, -5, -5, -1, -5), 0, 0.5862356022166357)
((1, -1, -1, 0, -5, -5, -1, -5), 0, 0.5880117160795038)
((1, -1, -1, 0, -5, -5, -1, -5), 0, 0.5892866408298643)
((12, -2, -4, -5, -28, -17, 16, 35), 0, 0.590333493174078)
((12, -2, -4, -5, -28, -17, 16, 35), 0, 0.5912834147456794)
((12, -2, -4, -5, -28, -17, 16, 35), 0, 0.5920235097036256)
((12, -2, -4, -5, -28, -17, 16, 35), 0, 0.5927493501361877)
((12, -2, -4, -5, -28, -17, 16, 35), 0, 0.5935818144186235)
((12, -2, -4, -5, -28, -17, 16, 35), 0, 0.5943834889262294)
((12, -2, -4, -5, -28, -17, 16, 35), 0, 0.5953128839812776)
((12, -2, -4, -5, -28, -17, 16, 35), 0, 0.5969532947624883)
((12, -2, -4, -5, -28, -17, 16, 35), 0, 0.5977144864180032)
((12, -2, -4, -5, -28, -17, 16, 35), 0, 0.5989050243780893)
((12, -2, -4, -5, -28, -17, 16, 35), 0, 0.5999096833271659)
((12, -2, -4, -5, -28, -17, 16, 35), 0, 0.6018597023997209)
((12, -2, -4, -5, -28, -17, 16, 35), 0, 0.6031967768807563)
((12, -2, -4, -5, -28, -17, 16, 35), 0, 0.6045116143021925)
((43, 8, 2, 0, -17, -5, 24, 83), 0, 0.6059074174278108)
((43, 8, 2, 0, -17, -5, 24, 83), 0, 0.606723346460801)
((43, 8, 2, 0, -17, -5, 24, 83), 0, 0.6075831794319743)
((43, 8, 2, 0, -17, -5, 24, 83), 0, 0.6085045919528073)
((43, 8, 2, 0, -17, -5, 24, 83), 0, 0.6093233718908742)
((43, 8, 2, 0, -17, -5, 24, 83), 0, 0.6101107918730959)
((43, 8, 2, 0, -17, -5, 24, 83), 0, 0.6111422493298948)
((-17, -2, 0, 1, 5, -19, -1, -94), 0, 0.612140066106787)
((-9, 0, -2, 1, 7, 0, 8, -23), 0, 0.6129588460448538)
((-9, 0, -2, 1, 7, 0, 8, -23), 0, 0.6137023620888924)
((-9, 0, -2, 1, 7, 0, 8, -23), 0, 0.6152760616913051)
((-9, 0, -2, 1, 7, 0, 8, -23), 0, 0.616483134900837)
((-9, 0, -2, 1, 7, 0, 8, -23), 0, 0.6187632887812894)
((-9, 0, -2, 1, 7, 0, 8, -23), 0, 0.620502911059174)
((-9, 0, -2, 1, 7, 0, 8, -23), 0, 0.6216860366660604)
((-9, 0, -2, 1, 7, 0, 8, -23), 0, 0.6226256949793851)
((-9, 0, -2, 1, 7, 0, 8, -23), 0, 0.6235237300785881)
((-9, 0, -2, 1, 7, 0, 8, -23), 0, 0.625004490175496)
((-9, 0, -2, 1, 7, 0, 8, -23), 0, 0.6263387137514547)
((5, -7, -2, -7, -18, -1, -4, 10), 0, 0.6274095136983138)
((-8, 1, 0, -2, 0, 46, 32, -16), 0, 0.6282773292037023)
((-8, 1, 0, -2, 0, 46, 32, -16), 0, 0.629056766651709)
((-8, 1, 0, -2, 0, 46, 32, -16), 0, 0.6300038373182334)
((-8, 1, 0, -2, 0, 46, 32, -16), 0, 0.6309822679406031)
((-8, 1, 0, -2, 0, 46, 32, -16), 0, 0.6322497803377638)
((-8, 1, 0, -2, 0, 46, 32, -16), 0, 0.6355625320370458)
((1, 1, 1, 1, -9, -4, 12, 11), 0, 0.6372947419617306)
((1, 1, 1, 1, -9, -4, 12, 11), 0, 0.6381939174229643)
((1, 1, 1, 1, -9, -4, 12, 11), 0, 0.6389973024736163)
((1, 1, 1, 1, -9, -4, 12, 11), 0, 0.6398941972107886)
((1, 1, 1, 1, -9, -4, 12, 11), 0, 0.6410972791532128)
((-6, 1, 1, 3, 29, 0, -10, -2), 0, 0.6421943074267787)
((-8, -2, -3, -4, -7, -4, 2, -10), 0, 0.6438809028702343)
((-8, -2, -3, -4, -7, -4, 2, -10), 0, 0.6447099460665777)
((-8, -2, -3, -4, -7, -4, 2, -10), 0, 0.6455543841503362)
((-8, -2, -3, -4, -7, -4, 2, -10), 0, 0.6464125065784635)
((-8, -2, -3, -4, -7, -4, 2, -10), 0, 0.6471714175099169)
((-8, -2, -3, -4, -7, -4, 2, -10), 0, 0.6481914713464083)
((-8, -2, -3, -4, -7, -4, 2, -10), 0, 0.6491813055890854)
((6, 1, -1, 0, -1, 5, -9, 10), 0, 0.6511410177389015)
((-12, -3, -3, -6, 2, -7, 8, -10), 0, 0.6533020037871423)
((-12, -3, -3, -6, 2, -7, 8, -10), 0, 0.6543568386655711)
((-12, -3, -3, -6, 2, -7, 8, -10), 0, 0.6554156648111076)
((-12, -3, -3, -6, 2, -7, 8, -10), 0, 0.6567248004223901)
((-12, -3, -3, -6, 2, -7, 8, -10), 0, 0.6579620932257364)
((-12, -3, -3, -6, 2, -7, 8, -10), 0, 0.658756925561158)
((-12, -3, -3, -6, 2, -7, 8, -10), 0, 0.65956031061181)
((-12, -3, -3, -6, 2, -7, 8, -10), 0, 0.6604783020465507)
((-12, -3, -3, -6, 2, -7, 8, -10), 0, 0.6612771256490798)
((-12, -3, -3, -6, 2, -7, 8, -10), 0, 0.6631826706024362)
((-12, -3, -3, -6, 2, -7, 8, -10), 0, 0.6643161904609857)
((-10, -1, -1, -2, -12, -12, -11, -14), 0, 0.6653961133040907)
((-10, -1, -1, -2, -12, -12, -11, -14), 0, 0.6671123581603452)
((-10, -1, -1, -2, -12, -12, -11, -14), 0, 0.6680594288268696)
((-10, -1, -1, -2, -12, -12, -11, -14), 0, 0.6690566754227465)
((-10, -1, -1, -2, -12, -12, -11, -14), 0, 0.6700077373563785)
((2, -4, -2, -2, 39, 4, -7, 6), 0, 0.6724458313780876)
((1, -1, -1, -1, -5, -4, -5, -5), 0, 0.6733227697797219)
((1, -1, -1, -1, -5, -4, -5, -5), 0, 0.6741107599429591)
((1, -1, -1, -1, -5, -4, -5, -5), 0, 0.6748856359428428)
((1, -1, -1, -1, -5, -4, -5, -5), 0, 0.6757340652937088)
((1, -1, -1, -1, -5, -4, -5, -5), 0, 0.6765648190330984)
((1, -1, -1, -1, -5, -4, -5, -5), 0, 0.6775386882073452)
((1, -1, -1, -1, -5, -4, -5, -5), 0, 0.678711550555955)
((1, -1, -1, -1, -5, -4, -5, -5), 0, 0.6796352438008495)
((1, -1, -1, -1, -5, -4, -5, -5), 0, 0.6804403393945476)
((1, -1, -1, -1, -5, -4, -5, -5), 0, 0.6821480315355716)
((1, -1, -1, -1, -5, -4, -5, -5), 0, 0.6836886606390931)
((1, -1, -1, -1, -5, -4, -5, -5), 0, 0.6848940233055788)
((1, -1, -1, -1, -5, -4, -5, -5), 0, 0.686174649866093)
((0, -1, 1, -1, -3, 1, -6, 2), 0, 0.6875807162499878)
((-4, -1, -4, 0, -1, -3, -20, -7), 0, 0.6888322635787183)
((-4, -1, -4, 0, -1, -3, -20, -7), 0, 0.6898255189074876)
((-4, -1, -4, 0, -1, -3, -20, -7), 0, 0.6909584685850216)
((-4, -1, -4, 0, -1, -3, -20, -7), 0, 0.6918051873928416)
((-4, -1, -4, 0, -1, -3, -20, -7), 0, 0.6925635281432796)
((-4, -1, -4, 0, -1, -3, -20, -7), 0, 0.6936457317104461)
((-3, 1, -1, -1, -3, -4, -7, -7), 0, 0.6947592952334578)
((-1, -2, -1, -2, 1, 3, 5, 0), 0, 0.6956482074364149)
((-1, -2, -1, -2, 1, 3, 5, 0), 0, 0.696391153299438)
((-1, -2, -1, -2, 1, 3, 5, 0), 0, 0.697181994367752)
((-1, -2, -1, -2, 1, 3, 5, 0), 0, 0.6979283613168673)
((-1, -2, -1, -2, 1, 3, 5, 0), 0, 0.698749992160011)
((-1, -2, -1, -2, 1, 3, 5, 0), 0, 0.70111795391683)
((-1, -2, -1, -2, 1, 3, 5, 0), 0, 0.7022309472588263)
((-2, -1, -2, -2, -29, -6, -3, 1), 0, 0.703260694172579)
((-6, -1, 0, 3, 53, 1, -8, -14), 0, 0.7042961428964853)
((-6, -1, 0, 3, 53, 1, -8, -14), 0, 0.705788876794716)
((-6, -1, 0, 3, 53, 1, -8, -14), 0, 0.7065882705782605)
((-6, -1, 0, 3, 53, 1, -8, -14), 0, 0.707412752326481)
((-6, -1, 0, 3, 53, 1, -8, -14), 0, 0.7084755697391251)
((-2, 0, 2, 3, 19, 5, 6, 2), 0, 0.7100412868073227)
((-2, 0, 2, 3, 19, 5, 6, 2), 0, 0.7108190137122833)
((-2, 0, 2, 3, 19, 5, 6, 2), 0, 0.7116326620212119)
((-2, 0, 2, 3, 19, 5, 6, 2), 0, 0.7125289865773687)
((-2, 0, 2, 3, 19, 5, 6, 2), 0, 0.7133477665154356)
((-2, 0, 2, 3, 19, 5, 6, 2), 0, 0.7142041784005169)
((-2, 0, 2, 3, 19, 5, 6, 2), 0, 0.7150087038131996)
((-2, 0, 2, 3, 19, 5, 6, 2), 0, 0.7167443348239766)
((-2, 0, 2, 3, 19, 5, 6, 2), 0, 0.7179360131460935)
((-2, 0, 2, 3, 19, 5, 6, 2), 0, 0.7193004563158666)
((-2, 0, 2, 3, 19, 5, 6, 2), 0, 0.7201973510530388)
((-2, 0, 2, 3, 19, 5, 6, 2), 0, 0.721314905843158)
((-2, 0, 2, 3, 19, 5, 6, 2), 0, 0.7225624619047809)
((-2, 0, 2, 3, 19, 5, 6, 2), 0, 0.723944010505015)
((-4, -2, -2, -2, 15, -7, -3, -7), 0, 0.7251123114055019)
((-4, -2, -2, -2, 15, -7, -3, -7), 0, 0.7258763539660936)
((-4, -2, -2, -2, 15, -7, -3, -7), 0, 0.7267344763942208)
((-4, -2, -2, -2, 15, -7, -3, -7), 0, 0.7274865451534899)
((-4, -2, -2, -2, 15, -7, -3, -7), 0, 0.7290408586013801)
((-4, -2, -2, -2, 15, -7, -3, -7), 0, 0.7300586317138101)
((-4, -2, -2, -2, 15, -7, -3, -7), 0, 0.7313118895855867)
((1, -2, -2, 4, -3, 2, -5, -21), 0, 0.7324151898503218)
((0, 0, -1, -1, -19, -8, 1, 0), 0, 0.7340419162871636)
((0, 0, -1, -1, -19, -8, 1, 0), 0, 0.7353493413554001)
((0, 0, -1, -1, -19, -8, 1, 0), 0, 0.7365227738850253)
((0, 0, -1, -1, -19, -8, 1, 0), 0, 0.7390498161451315)
((0, 0, -1, -1, -19, -8, 1, 0), 0, 0.7404114084098279)
((0, 0, -1, -1, -19, -8, 1, 0), 0, 0.7418733525332287)
((0, 0, -1, -1, -19, -8, 1, 0), 0, 0.7427525716589246)
((0, 0, -1, -1, -19, -8, 1, 0), 0, 0.7436101239060364)
((0, 0, -1, -1, -19, -8, 1, 0), 0, 0.7444659656101023)
((0, 0, -1, -1, -19, -8, 1, 0), 0, 0.7452739121088772)
((0, 0, -1, -1, -19, -8, 1, 0), 0, 0.7465100645501928)
((-3, -2, -2, -2, 3, -4, 2, 1), 0, 0.747978850845778)
((-3, -2, -2, -2, 3, -4, 2, 1), 0, 0.7488033325939987)
((-3, -2, -2, -2, 3, -4, 2, 1), 0, 0.750087380240605)
((-3, -2, -2, -2, 3, -4, 2, 1), 0, 0.7511638819976177)
((-3, -2, -2, -2, 3, -4, 2, 1), 0, 0.7519387579975014)
((-3, -2, -2, -2, 3, -4, 2, 1), 0, 0.7526913969377859)
((-3, -2, -2, -2, 3, -4, 2, 1), 0, 0.7539315406462089)
((-3, -3, -4, -7, -17, -8, -4, -7), 0, 0.7549590068359002)
((-3, -3, -4, -7, -17, -8, -4, -7), 0, 0.7559853326635607)
((-3, -3, -4, -7, -17, -8, -4, -7), 0, 0.7577169724072301)
((-3, -3, -4, -7, -17, -8, -4, -7), 0, 0.7591817674357079)
((-3, -3, -4, -7, -17, -8, -4, -7), 0, 0.7599167307645158)
((-3, -3, -4, -7, -17, -8, -4, -7), 0, 0.7610302942875274)
((-2, 0, -3, 3, 9, 4, 4, 0), 0, 0.7620862695279871)
((-3, 1, 1, -12, -12, -18, 1, -13), 0, 0.7628611455278708)
((-3, 1, 1, -12, -12, -18, 1, -13), 0, 0.7637529086359046)
((-3, 1, 1, -12, -12, -18, 1, -13), 0, 0.7646104608830165)
((-3, 1, 1, -12, -12, -18, 1, -13), 0, 0.7654121353906225)
((-3, 1, 1, -12, -12, -18, 1, -13), 0, 0.7679996168383577)
((-3, 1, 1, -12, -12, -18, 1, -13), 0, 0.7692203743922583)
((-3, -3, 1, 5, 7, 27, -7, 2), 0, 0.7701360851029376)
((0, -3, -3, 12, 0, 0, 0, -3), 0, 0.7709548650410045)
((0, -3, -3, 12, 0, 0, 0, -3), 0, 0.7717599606347026)
((0, -3, -3, 12, 0, 0, 0, -3), 0, 0.7725912845551077)
((0, -3, -3, 12, 0, 0, 0, -3), 0, 0.7735309428684325)
((0, -3, -3, 12, 0, 0, 0, -3), 0, 0.7749888957247257)
((0, -3, -3, 12, 0, 0, 0, -3), 0, 0.7759684667091261)
((0, -3, -3, 12, 0, 0, 0, -3), 0, 0.7770010645279557)
((0, -3, -3, 12, 0, 0, 0, -3), 0, 0.7778238357331302)
((0, -3, -3, 12, 0, 0, 0, -3), 0, 0.7785884484747373)
((0, -3, -3, 12, 0, 0, 0, -3), 0, 0.7793895528013278)
((0, -3, -3, 12, 0, 0, 0, -3), 0, 0.7801638586201961)
((0, -3, -3, 12, 0, 0, 0, -3), 0, 0.7809552698695255)
((0, -3, -3, 12, 0, 0, 0, -3), 0, 0.7819051914411268)
((0, -3, -3, 12, 0, 0, 0, -3), 0, 0.7839401674849714)
((-2, -1, -4, -1, -8, -7, 0, -2), 0, 0.7863252346722513)
((-2, -1, -4, -1, -8, -7, 0, -2), 0, 0.7871377426191493)
((-2, -1, -4, -1, -8, -7, 0, -2), 0, 0.7878618725086654)
((-2, -1, -4, -1, -8, -7, 0, -2), 0, 0.788643020499718)
((-2, -1, -4, -1, -8, -7, 0, -2), 0, 0.7895359239697827)
((-2, -1, -4, -1, -8, -7, 0, -2), 0, 0.7908815511660486)
((-2, -1, -4, -1, -8, -7, 0, -2), 0, 0.7924227504505855)
((-4, -12, -3, 7, -8, -11, -3, 2), 0, 0.7936691661501777)
((-4, -12, -3, 7, -8, -11, -3, 2), 0, 0.7944685599337221)
((-4, -12, -3, 7, -8, -11, -3, 2), 0, 0.7963182271475725)
((-4, -12, -3, 7, -8, -11, -3, 2), 0, 0.797113059482994)
((-4, -12, -3, 7, -8, -11, -3, 2), 0, 0.7980036822289972)
((-4, -12, -3, 7, -8, -11, -3, 2), 0, 0.7997951909792802)
((-4, -12, -3, 7, -8, -11, -3, 2), 0, 0.8009652024228132)
((-4, -12, -3, 7, -8, -11, -3, 2), 0, 0.8019373610540138)
((-4, -12, -3, 7, -8, -11, -3, 2), 0, 0.8029283356587216)
((-4, -12, -3, 7, -8, -11, -3, 2), 0, 0.8036690007976832)
((-4, -12, -3, 7, -8, -11, -3, 2), 0, 0.8044216397379677)
((-4, -12, -3, 7, -8, -11, -3, 2), 0, 0.8062924036493866)
((-5, -2, -3, -28, -55, -21, -5, -5), 0, 0.8073267120112623)
((0, 4, 8, -2, 32, -7, 2, -2), 0, 0.8083775556225835)
((0, 4, 8, -2, 32, -7, 2, -2), 0, 0.8094580486467039)
((0, 4, 8, -2, 32, -7, 2, -2), 0, 0.8105431031189472)
((0, 4, 8, -2, 32, -7, 2, -2), 0, 0.8113675848671678)
((0, 4, 8, -2, 32, -7, 2, -2), 0, 0.8121407503240053)
((0, 4, 8, -2, 32, -7, 2, -2), 0, 0.8130872508095145)
((0, 4, 8, -2, 32, -7, 2, -2), 0, 0.8141198486283441)
((-3, -9, -14, 3, -19, 15, 0, -6), 0, 0.8150811738202527)
((-3, -9, -14, 3, -19, 15, 0, -6), 0, 0.8164866700231322)
((-3, -9, -14, 3, -19, 15, 0, -6), 0, 0.8179258069059184)
((-3, -9, -14, 3, -19, 15, 0, -6), 0, 0.8190125719212078)
((-3, -9, -14, 3, -19, 15, 0, -6), 0, 0.8197612195943846)
((-3, -9, -14, 3, -19, 15, 0, -6), 0, 0.8208394318944435)
((-3, -9, -14, 3, -19, 15, 0, -6), 0, 0.8215242192938992)
((-5, -9, -9, -18, 23, -24, -9, -5), 0, 0.822487255028854)
((0, -2, 4, 29, -6, 10, 1, -2), 0, 0.8232912102605214)
((0, -2, 4, 29, -6, 10, 1, -2), 0, 0.8252988176156284)
((0, -2, 4, 29, -6, 10, 1, -2), 0, 0.8262778184190135)
((0, -2, 4, 29, -6, 10, 1, -2), 0, 0.8272881791782437)
((0, -2, 4, 29, -6, 10, 1, -2), 0, 0.8286474907188786)
((0, -2, 4, 29, -6, 10, 1, -2), 0, 0.8296920623390308)
((2, 4, 2, 6, -7, -10, -2, 0), 0, 0.8306488260828165)
((2, 4, 2, 6, -7, -10, -2, 0), 0, 0.8314311144359)
((2, 4, 2, 6, -7, -10, -2, 0), 0, 0.8324084046962389)
((2, 4, 2, 6, -7, -10, -2, 0), 0, 0.8344279858526686)
((2, 4, 2, 6, -7, -10, -2, 0), 0, 0.8356014183822938)
((2, 4, 2, 6, -7, -10, -2, 0), 0, 0.8368461235388399)
((2, 4, 2, 6, -7, -10, -2, 0), 0, 0.8378182821700405)
((2, 4, 2, 6, -7, -10, -2, 0), 0, 0.8390230746555108)
((2, 4, 2, 6, -7, -10, -2, 0), 0, 0.8404582202711895)
((2, 4, 2, 6, -7, -10, -2, 0), 0, 0.8416481880502603)
((2, 4, 2, 6, -7, -10, -2, 0), 0, 0.8426009605269384)
((2, 4, 2, 6, -7, -10, -2, 0), 0, 0.8446347962087524)
((2, 4, 2, 6, -7, -10, -2, 0), 0, 0.8458378781511766)
((-5, -6, -4, -9, -27, -26, -6, -1), 0, 0.8468151684115156)
((-5, -6, -4, -9, -27, -26, -6, -1), 0, 0.8476390799787209)
((-5, -6, -4, -9, -27, -26, -6, -1), 0, 0.848409964711497)
((-5, -6, -4, -9, -27, -26, -6, -1), 0, 0.8493621670071597)
((-5, -6, -4, -9, -27, -26, -6, -1), 0, 0.8506068721637058)
((-5, -6, -4, -9, -27, -26, -6, -1), 0, 0.8521201325784897)
((0, 3, 7, -17, -18, -1, 1, 1), 0, 0.8540045808342774)
((0, 3, 7, -17, -18, -1, 1, 1), 0, 0.8549761692844627)
((0, 3, 7, -17, -18, -1, 1, 1), 0, 0.855806352842837)
((0, 3, 7, -17, -18, -1, 1, 1), 0, 0.8565561408780445)
((0, 3, 7, -17, -18, -1, 1, 1), 0, 0.8574148334871872)
((0, 3, 7, -17, -18, -1, 1, 1), 0, 0.8583801499462034)
((0, 3, 7, -17, -18, -1, 1, 1), 0, 0.8595666966391821)
((0, 3, 7, -17, -18, -1, 1, 1), 0, 0.860612408621365)
((0, 3, 7, -17, -18, -1, 1, 1), 0, 0.861765314634437)
((0, 3, 7, -17, -18, -1, 1, 1), 0, 0.8631320385282716)
((0, 3, 7, -17, -18, -1, 1, 1), 0, 0.8639416955700926)
((0, 3, 7, -17, -18, -1, 1, 1), 0, 0.8646840712521005)
((0, 3, 7, -17, -18, -1, 1, 1), 0, 0.8659276360466157)
((0, 3, 7, -17, -18, -1, 1, 1), 0, 0.8674408964613995)
((-4, 2, 1, -8, -7, 8, -3, -8), 0, 0.8685430563641039)
((-4, 2, 1, -8, -7, 8, -3, -8), 0, 0.8694045998783234)
((-4, 2, 1, -8, -7, 8, -3, -8), 0, 0.8702775470128502)
((-4, 2, 1, -8, -7, 8, -3, -8), 0, 0.8720205903768269)
((-4, 2, 1, -8, -7, 8, -3, -8), 0, 0.8729596785091362)
((-4, 2, 1, -8, -7, 8, -3, -8), 0, 0.8740869263765167)
((-1, -3, -6, -18, 9, 4, -3, -3), 0, 0.8751058398509775)
((-1, -3, -6, -18, 9, 4, -3, -3), 0, 0.8759725149943353)
((-1, -3, -6, -18, 9, 4, -3, -3), 0, 0.8768927871531375)
((-1, -3, -6, -18, 9, 4, -3, -3), 0, 0.8779949470558418)
((-1, -3, -6, -18, 9, 4, -3, -3), 0, 0.8791028087686998)
((-1, -3, -6, -18, 9, 4, -3, -3), 0, 0.8812153294306343)
((-1, 2, 10, 3, -15, 1, 0, 2), 0, 0.882311787523185)
((0, -7, -13, 7, 1, 10, 2, 1), 0, 0.8836192125914214)
((0, -7, -13, 7, 1, 10, 2, 1), 0, 0.8845166775096089)
((0, -7, -13, 7, 1, 10, 2, 1), 0, 0.885420984599981)
((0, -7, -13, 7, 1, 10, 2, 1), 0, 0.8866383210677894)
((0, -7, -13, 7, 1, 10, 2, 1), 0, 0.8874502588336719)
((0, -7, -13, 7, 1, 10, 2, 1), 0, 0.8886550513191422)
((-2, 0, 6, 12, -10, 0, -2, -1), 0, 0.8897076054735097)
((0, 7, 2, -15, 13, -15, -3, -1), 0, 0.8914683244489628)
((0, 7, 2, -15, 13, -15, -3, -1), 0, 0.8923868860647189)
((0, 7, 2, -15, 13, -15, -3, -1), 0, 0.893162332245618)
((0, 7, 2, -15, 13, -15, -3, -1), 0, 0.8941065520070657)
((0, 7, 2, -15, 13, -15, -3, -1), 0, 0.8950804211813125)
((0, 7, 2, -15, 13, -15, -3, -1), 0, 0.896650699697633)
((0, 7, 2, -15, 13, -15, -3, -1), 0, 0.8976222881478183)
((0, 7, 2, -15, 13, -15, -3, -1), 0, 0.8984347960947162)
((0, 7, 2, -15, 13, -15, -3, -1), 0, 0.8994012529157631)
((0, 7, 2, -15, 13, -15, -3, -1), 0, 0.9013296051097341)
((0, 7, 2, -15, 13, -15, -3, -1), 0, 0.9021096127387562)
((0, 7, 2, -15, 13, -15, -3, -1), 0, 0.9036405487650164)
((0, 7, 2, -15, 13, -15, -3, -1), 0, 0.9047273137803058)
((-2, -3, -1, -6, -5, 0, -3, -2), 0, 0.9057160076609522)
((-2, -3, -1, -6, -5, 0, -3, -2), 0, 0.9067183858859672)
((-2, -3, -1, -6, -5, 0, -3, -2), 0, 0.9075080865922505)
((-2, -3, -1, -6, -5, 0, -3, -2), 0, 0.9083382701506247)
((-2, -3, -1, -6, -5, 0, -3, -2), 0, 0.909101742530201)
((-2, -3, -1, -6, -5, 0, -3, -2), 0, 0.9098532411084547)
((-1, -5, 1, 5, -4, -1, 1, -1), 0, 0.9117217242958122)
((1, 11, 10, 27, 38, 9, 0, 1), 0, 0.9127908136996252)
((1, 11, 10, 27, 38, 9, 0, 1), 0, 0.9144101277832674)
((1, 11, 10, 27, 38, 9, 0, 1), 0, 0.9152614080392102)
((1, 11, 10, 27, 38, 9, 0, 1), 0, 0.9163932173547136)
((1, 11, 10, 27, 38, 9, 0, 1), 0, 0.917518754679048)
((1, 11, 10, 27, 38, 9, 0, 1), 0, 0.9186864853985195)
((1, 11, 10, 27, 38, 9, 0, 1), 0, 0.9198382510495607)
((1, 11, 10, 27, 38, 9, 0, 1), 0, 0.921504319976463)
((1, 11, 10, 27, 38, 9, 0, 1), 0, 0.9223766969299744)
((1, 11, 10, 27, 38, 9, 0, 1), 0, 0.9230956951903521)
((1, 11, 10, 27, 38, 9, 0, 1), 0, 0.9237981582012842)
((1, 11, 10, 27, 38, 9, 0, 1), 0, 0.9247075969207944)
((1, 11, 10, 27, 38, 9, 0, 1), 0, 0.9255754124261829)
((1, 11, 10, 27, 38, 9, 0, 1), 0, 0.92681384559156)
((1, 11, 10, 27, 38, 9, 0, 1), 0, 0.9277346879313776)
((-7, -6, -5, -21, 17, 4, -6, -5), 0, 0.9288317162049435)
((-7, -6, -5, -21, 17, 4, -6, -5), 0, 0.9299059372378949)
((-7, -6, -5, -21, 17, 4, -6, -5), 0, 0.9314636717718774)
((-7, -6, -5, -21, 17, 4, -6, -5), 0, 0.9324375409461242)
((-7, -6, -5, -21, 17, 4, -6, -5), 0, 0.9342752343586519)
((-3, -6, -14, -17, -7, -12, -5, -2), 0, 0.9353466044865263)
((-3, -6, -6, -8, -15, -1, 1, -1), 0, 0.9361733669588084)
((-3, -6, -6, -8, -15, -1, 1, -1), 0, 0.9373627645568638)
((-3, -6, -6, -8, -15, -1, 1, -1), 0, 0.939129755523486)
((-3, -6, -6, -8, -15, -1, 1, -1), 0, 0.942316497218372)
((-3, -6, -6, -8, -15, -1, 1, -1), 0, 0.9436028255890397)
((-3, -6, -6, -8, -15, -1, 1, -1), 0, 0.9446485375712227)
((-3, -6, -6, -8, -15, -1, 1, -1), 0, 0.9455311777830108)
((-3, -6, -6, -8, -15, -1, 1, -1), 0, 0.9465039065952268)
((-3, -6, -6, -8, -15, -1, 1, -1), 0, 0.947593522515593)
((-3, -6, -6, -8, -15, -1, 1, -1), 0, 0.9490320892173638)
((2, 0, 1, 11, -17, -10, -2, 1), 0, 0.9512729006077559)
((2, 0, 1, 11, -17, -10, -2, 1), 0, 0.9520740049343465)
((2, 0, 1, 11, -17, -10, -2, 1), 0, 0.952890504148352)
((2, 0, 1, 11, -17, -10, -2, 1), 0, 0.9538489784351838)
((2, 0, 1, 11, -17, -10, -2, 1), 0, 0.9547903472915547)
((2, 0, 1, 11, -17, -10, -2, 1), 0, 0.9560390437152083)
((2, 0, 1, 11, -17, -10, -2, 1), 0, 0.9570516851984999)
((2, 0, 1, 11, -17, -10, -2, 1), 0, 0.95786761423149)
((2, 0, 1, 11, -17, -10, -2, 1), 0, 0.9587508246242935)
((2, 0, 1, 11, -17, -10, -2, 1), 0, 0.9602315847212014)
((2, 0, 1, 11, -17, -10, -2, 1), 0, 0.9610760228049599)
((2, 0, 1, 11, -17, -10, -2, 1), 0, 0.961904495820288)
((2, 0, 1, 11, -17, -10, -2, 1), 0, 0.9627335390166316)
((2, 0, 1, 11, -17, -10, -2, 1), 0, 0.9639417525881941)
((0, 1, -2, -4, -6, 2, 2, -1), 0, 0.965335274989751)
((0, 1, -2, -4, -6, 2, 2, -1), 0, 0.9671005554133271)
((0, 1, -2, -4, -6, 2, 2, -1), 0, 0.9681781975323706)
((0, 1, -2, -4, -6, 2, 2, -1), 0, 0.9691480754395098)
((0, 1, -2, -4, -6, 2, 2, -1), 0, 0.969926942706501)
((0, 1, -2, -4, -6, 2, 2, -1), 0, 0.9710616029270812)
((0, 1, -2, -4, -6, 2, 2, -1), 0, 0.9721004727370799)
((-1, -2, 1, 2, -5, 1, 1, -1), 0, 0.9730572364808656)
((-1, -2, 1, 2, -5, 1, 1, -1), 0, 0.9739381661496075)
((-1, -2, 1, 2, -5, 1, 1, -1), 0, 0.9746754102024769)
((-1, -2, 1, 2, -5, 1, 1, -1), 0, 0.9754742338050061)
((-1, -2, 1, 2, -5, 1, 1, -1), 0, 0.9762531010719974)
((-1, -2, 1, 2, -5, 1, 1, -1), 0, 0.9771477150851081)
((-1, -2, 1, 2, -5, 1, 1, -1), 0, 0.9784836492041128)
((-1, -2, 1, 2, -5, 1, 1, -1), 0, 0.9793634385108241)
((-1, -2, 1, 2, -5, 1, 1, -1), 0, 0.9801326127005541)
((-1, -2, 1, 2, -5, 1, 1, -1), 0, 0.981041481239049)
((-1, -2, 1, 2, -5, 1, 1, -1), 0, 0.9832224236228275)
((-1, -2, 1, 2, -5, 1, 1, -1), 0, 0.984428926651344)
((-1, -2, 1, 2, -5, 1, 1, -1), 0, 0.9854432786776818)
((-1, -2, 1, 2, -5, 1, 1, -1), 0, 0.986385217715068)
((-1, 0, 4, 12, -22, -2, -3, -1), 0, 0.9885057209112177)
((-1, 0, 4, 12, -22, -2, -3, -1), 0, 0.9894813006285106)
((-1, 0, 4, 12, -22, -2, -3, -1), 0, 0.9904443363634653)
((-1, 0, 4, 12, -22, -2, -3, -1), 0, 0.9912089491050724)
((-1, 0, 4, 12, -22, -2, -3, -1), 0, 0.9920129043367398)
((-1, 0, 4, 12, -22, -2, -3, -1), 0, 0.9929907647780941)
((-1, 0, 4, 12, -22, -2, -3, -1), 0, 0.9940604243629225)
((-2, -3, -5, -1, -7, -5, -1, -1), 0, 0.9950987239919057)
((-2, -3, -5, -1, -7, -5, -1, -1), 0, 0.9959425918946488)
((-2, -3, -5, -1, -7, -5, -1, -1), 0, 0.9967801878062228)
((-2, -3, -5, -1, -7, -5, -1, -1), 0, 0.9983305099870056)
((-2, -3, -5, -1, -7, -5, -1, -1), 0, 0.9999811840264929)
((-2, -3, -5, -1, -7, -5, -1, -1), 0, 1.0019152380306175)
((-2, -3, -5, -1, -7, -5, -1, -1), 0, 1.002950686754524)
((-2, -3, -5, -1, -7, -5, -1, -1), 0, 1.0037791597698522)
((-2, -3, -5, -1, -7, -5, -1, -1), 0, 1.0046395629220408)
((-2, -3, -5, -1, -7, -5, -1, -1), 0, 1.0056943978004698)
((-2, -3, -5, -1, -7, -5, -1, -1), 0, 1.007464809853184)
((-2, -3, -5, -1, -7, -5, -1, -1), 0, 1.0087505680428366)
((-3, -2, -5, -23, -8, -8, -5, -5), 0, 1.0098128152744652)
((-2, 1, -2, 23, 23, 7, 0, -2), 0, 1.0106663762544694)
((-2, 1, -2, 23, 23, 7, 0, -2), 0, 1.0114834456494903)
((-2, 1, -2, 23, 23, 7, 0, -2), 0, 1.0122360845897747)
((-2, 1, -2, 23, 23, 7, 0, -2), 0, 1.0130691190532257)
((-2, 1, -2, 23, 23, 7, 0, -2), 0, 1.013938074920645)
((-2, 1, -2, 23, 23, 7, 0, -2), 0, 1.0147186527306824)
((-2, 1, -2, 23, 23, 7, 0, -2), 0, 1.0159804633176894)
((-2, 1, -2, 23, 23, 7, 0, -2), 0, 1.0178369727037242)
((-2, 1, -2, 23, 23, 7, 0, -2), 0, 1.0188895268580915)
((-2, 1, -2, 23, 23, 7, 0, -2), 0, 1.0198901945400607)
((-2, 1, -2, 23, 23, 7, 0, -2), 0, 1.0207386238909266)
((-2, 1, -2, 23, 23, 7, 0, -2), 0, 1.0216315273609913)
((-2, 1, -2, 23, 23, 7, 0, -2), 0, 1.022631624861945)
((-2, 1, -2, 23, 23, 7, 0, -2), 0, 1.0238922950869211)
((-1, 2, 0, -1, 3, 9, 1, 2), 0, 1.024996735713687)
((-1, 2, 0, -1, 3, 9, 1, 2), 0, 1.0259192885965507)
((-1, 2, 0, -1, 3, 9, 1, 2), 0, 1.0273019775588157)
((-1, 2, 0, -1, 3, 9, 1, 2), 0, 1.0281110644196212)
((-1, 2, 0, -1, 3, 9, 1, 2), 0, 1.029084933593868)
((-1, 2, 0, -1, 3, 9, 1, 2), 0, 1.029950468375195)
((-1, 2, 0, -1, 3, 9, 1, 2), 0, 1.0313913158010273)
((-1, -2, -3, -7, -53, -4, -3, -2), 0, 1.0329222518272876)
((-2, -1, 1, 8, 61, 7, 3, 0), 0, 1.0341897642244484)
((-2, -1, 1, 8, 61, 7, 3, 0), 0, 1.0352001249836786)
((-2, -1, 1, 8, 61, 7, 3, 0), 0, 1.0368251408774745)
((-2, -1, 1, 8, 61, 7, 3, 0), 0, 1.0377915976985213)
((-2, -1, 1, 8, 61, 7, 3, 0), 0, 1.0391389354378335)
((-2, -1, 1, 8, 61, 7, 3, 0), 0, 1.0411037792167879)
((-2, -1, 1, 8, 61, 7, 3, 0), 0, 1.042642127596248)
((-2, -1, 1, 8, 61, 7, 3, 0), 0, 1.0429773940332838)
((-2, -1, 1, 8, 61, 7, 3, 0), 0, 1.0441519669249397)
((-2, -1, 1, 8, 61, 7, 3, 0), 0, 1.0447842976709816)
((-2, -1, 1, 8, 61, 7, 3, 0), 0, 1.0470587497412804)
((-1, -1, -1, 3, -25, 4, 2, -1), 0, 1.0485201236836659)
((0, 0, 0, -11, -29, -11, -2, -1), 0, 1.0516572596302147)
((0, 0, 0, -11, -29, -11, -2, -1), 0, 1.052846087047255)
((0, 0, 0, -11, -29, -11, -2, -1), 0, 1.0544733836651121)
((0, -2, -2, -5, -16, -9, -1, -2), 0, 1.0562700240445335)
((0, -2, -2, -5, -16, -9, -1, -2), 0, 1.0570659967419858)
((0, -2, -2, -5, -16, -9, -1, -2), 0, 1.057970874013373)
((0, -2, -2, -5, -16, -9, -1, -2), 0, 1.0589418922825429)
((0, -2, -2, -5, -16, -9, -1, -2), 0, 1.0597315929888262)
((0, -2, -2, -5, -16, -9, -1, -2), 0, 1.0609506399996806)
((0, -2, -2, -5, -16, -9, -1, -2), 0, 1.0619245091739276)
((0, -2, -2, -5, -16, -9, -1, -2), 0, 1.0628356584364838)
((0, -2, -2, -5, -16, -9, -1, -2), 0, 1.0636818070632883)
((0, -2, -2, -5, -16, -9, -1, -2), 0, 1.0655730974912605)
((0, -2, -2, -5, -16, -9, -1, -2), 0, 1.0669677602548482)
((0, -2, -2, -5, -16, -9, -1, -2), 0, 1.0680032089787546)
((0, -2, -2, -5, -16, -9, -1, -2), 0, 1.0694503283957557)
((-5, -4, -6, 5, 4, -7, -4, -2), 0, 1.0706591121483338)
((-2, 0, 1, -23, -9, -10, -3, -2), 0, 1.071528068015753)
((-2, 0, 1, -23, -9, -10, -3, -2), 0, 1.07239360279708)
((-2, 0, 1, -23, -9, -10, -3, -2), 0, 1.0732163740022544)
((-2, 0, 1, -23, -9, -10, -3, -2), 0, 1.074208488968993)
((-2, 0, 1, -23, -9, -10, -3, -2), 0, 1.0750375321653365)
((-2, 0, 1, -23, -9, -10, -3, -2), 0, 1.0763250008980352)
((-3, -3, -1, 8, -3, -1, -1, -1), 0, 1.0776769000854702)
((0, 0, 2, -4, 13, 10, 4, 1), 0, 1.0785276101603976)
((0, 0, 2, -4, 13, 10, 4, 1), 0, 1.079435908517877)
((0, 0, 2, -4, 13, 10, 4, 1), 0, 1.0802563989989902)
((0, 0, 2, -4, 13, 10, 4, 1), 0, 1.081003336129121)
((0, 0, 2, -4, 13, 10, 4, 1), 0, 1.0817388696389443)
((0, 0, 2, -4, 13, 10, 4, 1), 0, 1.083881039713678)
((0, 0, 2, -4, 13, 10, 4, 1), 0, 1.084643941912239)
((1, -2, 1, 4, 10, -3, 1, -1), 0, 1.0858242166140484)
((1, -2, 1, 4, 10, -3, 1, -1), 0, 1.0868562442518626)
((1, -2, 1, 4, 10, -3, 1, -1), 0, 1.0878785788124157)
((1, -2, 1, 4, 10, -3, 1, -1), 0, 1.0895161386885495)
((1, -2, 1, 4, 10, -3, 1, -1), 0, 1.0909119418141677)
((1, -2, 1, 4, 10, -3, 1, -1), 0, 1.091900635694814)
((1, 3, 4, 8, -7, 15, 5, 1), 0, 1.0932753421228638)
((1, 3, 4, 8, -7, 15, 5, 1), 0, 1.094329036639262)
((1, 3, 4, 8, -7, 15, 5, 1), 0, 1.0953445290276305)
((1, 3, 4, 8, -7, 15, 5, 1), 0, 1.0961074312261914)
((1, 3, 4, 8, -7, 15, 5, 1), 0, 1.0968828774070905)
((1, 3, 4, 8, -7, 15, 5, 1), 0, 1.0976492006917435)
((1, 3, 4, 8, -7, 15, 5, 1), 0, 1.0990450038173618)
((1, 3, 4, 8, -7, 15, 5, 1), 0, 1.100409446987135)
((1, 3, 4, 8, -7, 15, 5, 1), 0, 1.1011848931680341)
((1, 3, 4, 8, -7, 15, 5, 1), 0, 1.1023326675519678)
((1, 3, 4, 8, -7, 15, 5, 1), 0, 1.1033418879491672)
((1, 3, 4, 8, -7, 15, 5, 1), 0, 1.1043824683022119)
((1, 3, 4, 8, -7, 15, 5, 1), 0, 1.1173609285739945)
((-3, -2, -3, 0, -1, -11, -4, -6), 0, 1.1239168698886837)
((-3, -2, -3, 0, -1, -11, -4, -6), 0, 1.1305862772254307)
((-3, -2, -3, 0, -1, -11, -4, -6), 0, 1.132272302487871)
((-3, -2, -3, 0, -1, -11, -4, -6), 0, 1.1345838163241684)
((-3, -2, -3, 0, -1, -11, -4, -6), 0, 1.1357868982665926)
((-3, -2, -3, 0, -1, -11, -4, -6), 0, 1.1371781399440881)
((-5, -4, -7, -16, -47, -19, -7, -4), 0, 1.141768097117792)
((-5, -4, -7, -16, -47, -19, -7, -4), 0, 1.1517633703171746)
((-5, -4, -7, -16, -47, -19, -7, -4), 0, 1.1540475154647345)
((-5, -5, -8, -29, -23, 9, -4, 4), 0, 1.1781262597436808)
((-5, -5, -8, -29, -23, 9, -4, 4), 0, 1.185886423362825)
((-5, -5, -8, -29, -23, 9, -4, 4), 0, 1.1872793755833664)
((3, 2, -2, -10, 68, 16, 12, 10), 0, 1.1906856369691685)
((3, 2, -2, -10, 68, 16, 12, 10), 0, 1.1923836360329314)
((3, 2, -2, -10, 68, 16, 12, 10), 0, 1.1945343588228956)
((3, 2, -2, -10, 68, 16, 12, 10), 0, 1.195967793895528)
((3, 2, -2, -10, 68, 16, 12, 10), 0, 1.1971571914935835)
((-8, -8, -8, -7, -4, 8, -27, -32), 0, 1.1985450120849865)
((-8, -8, -8, -7, -4, 8, -27, -32), 0, 1.2004756450030192)
((-8, -8, -8, -7, -4, 8, -27, -32), 0, 1.2014877163052955)
((2, 4, 6, 11, 41, -6, 7, 6), 0, 1.2059545143796802)
((-19, -16, -10, -5, -30, -34, -82, -86), 0, 1.2362584949844027)
((15, 45, 13, 14, 42, 16, 116, 95), 0, 1.2618596225743788)
((1, -18, -12, -25, -30, 19, 73, 62), 0, 1.2815166130791542)
((0, 17, 24, 17, 15, 38, -29, 13), 1, 1.3031601142414682)
((4, -15, -12, -6, -22, -18, -92, -36), 1, 1.3228678508566114)
((-19, -4, -2, -32, 3, 17, 19, 60), 1, 1.3401990729997053)
((19, -3, -1, -10, 21, 21, 68, -7), 1, 1.361411517314402)
((-37, -10, -3, -5, -14, 0, 31, 2), 1, 1.3803078863446778)
((-8, -6, -2, 17, -14, 59, -32, 17), 1, 1.4017615172288747)
((-7, -3, -3, 0, -3, 37, -23, -7), 1, 1.4215325439367237)
((8, 1, -1, -15, -4, 18, 16, 14), 1, 1.4412511139911588)
((2, 0, 2, 17, 5, -6, 38, 6), 1, 1.4627594822528307)
((-2, -1, -2, -16, -9, -5, -29, -10), 1, 1.4823953760600377)
((-3, -4, -5, -2, -9, -20, -22, -37), 1, 1.5015249491255989)
((7, -50, 2, 11, 1, -12, 3, 13), 1, 1.5211865010784973)
((-1, 3, 3, 12, 2, -12, -5, -3), 1, 1.5414706907001765)
((9, 6, 0, -43, 2, 34, 33, 0), 1, 1.5627002404453343)
((-4, 11, 1, 6, -4, -32, -4, 13), 1, 1.582475828601306)
((-1, 6, -2, 1, 1, 4, -1, 8), 1, 1.602173872139188)
((-4, 7, -1, 2, -1, 5, 40, 14), 1, 1.6218804683923005)
((-2, -3, -1, -1, 0, 28, 2, 21), 1, 1.6421167628086888)
((-4, 2, -3, -9, -4, -24, -22, -15), 1, 1.6665592825754392)
((1, -7, -4, 2, -6, -12, -32, -26), 1, 1.686174649866093)
((2, 16, 3, 0, 1, 11, -39, -11), 1, 1.7050140007948322)
((-1, -1, 0, 8, 5, 9, 12, -4), 1, 1.7251659084209463)
((-3, -5, -2, 1, -4, -4, -17, 14), 1, 1.7449557511023024)
((-3, 3, -1, 16, -2, 10, -5, 5), 1, 1.7690903731207546)
((-4, -4, -6, -5, -2, -3, -27, -15), 1, 1.7881749018861017)
((-2, -5, -1, -4, -5, -11, -2, -4), 1, 1.8087151027836808)
((2, -3, -2, 6, 2, 10, 15, -4), 1, 1.8274090575535016)
((2, 0, -1, -1, -2, -9, -10, -13), 1, 1.8470586357050773)
((0, -4, -5, -9, -6, -7, -7, 5), 1, 1.8719373439485834)
((-3, -2, -2, -6, 0, -10, -14, 2), 1, 1.8897617726699696)
((-1, -2, 0, 4, 2, -4, -23, -11), 1, 1.909022487369065)
((0, 3, 3, 3, 5, -1, -2, -4), 1, 1.9276959156223326)
((2, -2, -1, 2, 0, -4, -24, -12), 1, 1.946931542356752)
((-1, -2, 0, 5, -1, 5, -11, 0), 1, 1.9704714655761764)
((0, 0, 1, -6, 0, 3, 0, 1), 1, 1.9897800754805628)
((1, 10, 2, 7, -1, -5, -19, -5), 1, 2.009776323689482)
((-5, -2, 0, 11, -6, -7, -14, -7), 1, 2.0291539254967272)
((-6, -4, -5, -9, -9, -17, 3, 1), 1, 2.0483530606461633)
((0, -5, -6, -15, -1, 6, 12, 2), 1, 2.069242212325147)
((0, 0, -2, 2, -2, -4, -5, 6), 1, 2.089272671394988)
((-1, -3, -2, 0, -2, 6, -11, -4), 1, 2.10761938592645)
((-3, -2, -5, -21, -3, -7, -24, 5), 1, 2.1270910676012313)
((0, 2, -1, -1, -1, -1, -12, 6), 1, 2.147592496189765)
((2, -9, 0, -5, -2, -6, -16, 5), 1, 2.1711164543407597)
((2, 0, 2, 2, 0, 3, 10, 4), 1, 2.1908988846689157)
((-3, -5, -5, -7, -2, -3, -6, -7), 1, 2.213053838202014)
((-4, -3, 1, -7, -5, -2, -10, 0), 1, 2.2388408448029997)
((-1, -4, -3, -2, -1, 2, -13, 0), 1, 2.258483010601376)
((-2, 0, -2, -8, 8, 5, 8, -9), 1, 2.278918298192127)
((0, -1, 2, 13, -3, -3, -5, -3), 1, 2.298479498286321)
((3, 6, 1, 1, 2, 0, 10, 20), 1, 2.3183805262656736)
((-1, -3, -3, 0, 0, -7, -7, -9), 1, 2.338355677777024)
((-3, -2, -3, 0, -2, -1, 1, -7), 1, 2.3586774993457174)
((-2, -4, -3, 3, -4, -7, -17, -18), 1, 2.3808809182651216)
((0, -1, 0, -6, -1, 1, 31, 10), 1, 2.4007962007698582)
((-5, -2, -3, -7, -3, -3, -14, -5), 1, 2.420194329093657)
((-2, -6, -1, -8, -5, -10, -8, -3), 1, 2.438689290689115)
((0, 2, 2, 7, -1, 2, 5, 0), 1, 2.4591559382357118)
((0, 2, 0, 7, 0, 0, -1, 3), 1, 2.4843710532782843)
((1, -2, -7, 1, -9, -13, -6, -12), 1, 2.5037024704232853)
((3, 4, -3, -1, -2, 0, 3, -3), 1, 2.5243356108263693)
((-1, -5, -3, -5, -2, 3, 6, 1), 1, 2.54334829678378)
((0, -2, -1, -3, -2, 0, -1, -2), 1, 2.565779788109331)
((-2, 2, 0, -10, 0, -1, 1, -2), 1, 2.5892033944016206)
((0, -1, -1, 4, -2, -4, -3, 1), 1, 2.6086819182485863)
((0, 3, 0, -2, -2, 2, 0, 0), 1, 2.6285322001175713)
((-1, 1, 2, 14, -4, -3, -9, -12), 1, 2.6496146431607643)
((1, 1, -1, -1, 35, 2, -4, 1), 1, 2.6699501490738267)
((-3, -1, 0, -2, -14, -1, -5, -5), 1, 2.6909921092649283)
((-2, -1, 0, -1, -5, 2, 3, 4), 1, 2.7095902736241673)
((-1, -3, -5, -3, -4, -1, -1, 3), 1, 2.729339063272417)
((-2, 1, 1, -1, -1, -4, -13, -7), 1, 2.7483015733004756)
((-3, 1, -3, -13, 16, 2, -4, 0), 1, 2.767119257350631)
((-1, -5, -7, -12, -8, -4, 2, -2), 1, 2.7889902607380765)
((-1, -2, -1, 0, -1, 1, 2, 4), 1, 2.807203552911943)
((-1, -5, -4, -1, -11, 1, 2, 1), 1, 2.8272967318934743)
((-1, 2, 0, 4, -3, 2, 19, -11), 1, 2.8472889888352855)
((-1, -2, -3, -3, -2, -9, -8, 2), 1, 2.8665052294151825)
((0, -1, 1, 2, -10, 0, 0, -1), 1, 2.8874913118667784)
((0, 0, -2, -1, 22, 4, -2, -1), 1, 2.908234497205828)
((-2, -3, -3, -6, -32, -2, -3, 1), 1, 2.9284285982270792)
((-1, -1, -1, 2, -9, -8, -5, 0), 1, 2.951153162594529)
((-1, 0, 0, -3, -10, -8, -5, -4), 1, 2.9702399720839376)
((-2, -8, -3, 0, -36, -12, -4, -2), 1, 2.9910504387828003)
((2, -5, -2, 1, 22, -5, -2, 6), 1, 3.011506252890105)
((6, 16, 17, 23, -89, 10, 11, 52), 1, 3.031124471085836)
((-6, -7, -5, 4, 26, 6, 1, -23), 1, 3.05119142174066)
((1, 1, 4, 9, 8, -5, 2, -3), 1, 3.069972614205832)
((-5, -2, -3, 0, -3, 16, -1, -14), 1, 3.0910385219995793)
((1, -3, 1, -2, 17, 2, 0, -11), 1, 3.108934793528902)
((-4, -7, -8, -20, 3, 5, -5, -12), 1, 3.1279320845988976)
((-11, -5, -7, 0, 100, 0, -8, -19), 0, 3.148052062088151)
((6, 0, 3, 13, -23, 12, 9, 37), 0, 3.1665093917365947)
((-2, -2, -2, -4, -57, -1, -2, -13), 0, 3.1835771902505887)
((-9, -17, -8, -11, 24, -14, -10, -4), 0, 3.20714334179672)
((0, -16, -5, -6, -40, -13, -2, -3), 0, 3.2327632853602033)
((-5, -8, -2, 1, 39, 1, 0, -8), 0, 3.249402877931657)
((-1, -2, -1, -5, 17, 3, -3, -4), 0, 3.268897366847053)
((0, -3, -5, -10, -18, -2, -4, -6), 3, 3.2882493105086072)
((-2, -1, -1, -3, -7, -7, 0, -3), 3, 3.308605913119238)
((2, -8, -3, -2, -31, -11, -4, -4), 3, 3.326639598273264)
((-5, 0, -4, -3, -24, -3, -7, -3), 3, 3.3466215919567985)
((-3, -1, 0, -11, -6, -13, -8, -6), 3, 3.36735964566671)
((-1, -4, -1, 3, 52, 14, 4, -2), 3, 3.3878719076945356)
((-3, -1, 0, -5, -19, -9, 0, 0), 3, 3.4084463194530366)
((0, -1, -1, 2, -1, -1, -2, -5), 3, 3.4277606311675766)
((-2, -1, -1, -7, -34, -10, -7, -2), 3, 3.449710319535143)
((1, -1, 1, 3, -10, 8, 4, 1), 3, 3.4716919380395694)
((0, 0, 1, 6, 3, 2, 1, -1), 3, 3.490901336447282)
((-1, -2, -7, -27, -14, -4, -4, -3), 3, 3.514560427498918)
((-1, -5, -2, -12, 1, 0, -3, -2), 3, 3.533805747310599)
((0, 1, -2, -4, -11, -14, -4, -2), 3, 3.5547439345569036)
((-1, 0, -1, -4, -11, -4, -1, 1), 3, 3.5735599080640132)
((-4, -4, 0, 13, 70, -3, -3, -1), 3, 3.5927214112664347)
((1, -3, -5, -13, -25, -11, -4, -1), 3, 3.614863820817195)
((-5, -7, 6, 4, 12, 22, 5, 0), 3, 3.6341838343418886)
((-4, 26, 8, 30, 87, 58, 13, -19), 3, 3.6525083118137514)
((-14, -8, -9, -11, -44, -22, -12, -4), 0, 3.672066090821853)
((-16, -11, -1, -5, -26, 17, 7, -35), 0, 3.6912857524878424)
((-43, -70, -24, -21, 31, -24, -27, -47), 3, 3.714510365605769)
((18, -1, 1, -15, -40, -17, -8, -37), 3, 3.7343389805961698)
((2, 4, 1, 11, -72, 12, -4, -55), 0, 3.7544669406196385)
((-2, -44, -11, -20, -38, -8, -9, -29), 0, 3.773345063857423)
((7, 11, 3, 4, 32, -10, -3, 14), 0, 3.793885264755002)
((13, -1, 1, -3, 3, 31, 9, 63), 0, 3.8174377319567645)
((-2, 11, -1, -19, -44, -31, -10, -10), 0, 3.8370519588853873)
((8, 4, 8, 4, -12, -5, -5, 42), 0, 3.8552424438186392)
((2, 3, -1, 4, 24, -26, -3, 26), 0, 3.874995794915012)
((5, -9, 1, 0, 54, 7, 0, 16), 0, 3.897208336730662)
((-16, -17, -5, -3, 2, -9, -8, -48), 0, 3.918858109884145)
((-2, -5, -2, 7, 1, -2, -2, 3), 0, 3.9394256794704616)
((1, -20, -9, -14, -18, 6, -9, -6), 2, 3.9585797703196834)
((5, -9, -2, 7, 47, 10, -4, -20), 2, 3.978312594899503)
((3, -3, 4, 6, -44, 22, 3, -7), 2, 4.001035448723907)
((-4, 1, -2, 12, 65, 12, 2, 12), 2, 4.021775783157879)
((0, 2, 3, -10, 38, 4, 3, 1), 2, 4.041780013901013)
((-2, 3, -3, -9, -30, -7, -5, 1), 2, 4.060594276865077)
((-1, -3, 1, 6, -4, 4, 1, -6), 2, 4.0805717091004885)
((-2, 0, -2, -2, -51, -7, -2, -4), 2, 4.100523483190209)
((-1, 1, -2, -2, -11, -6, 0, 14), 2, 4.122419004361315)
((-3, -5, -7, -6, -15, -1, -5, -12), 2, 4.1424631477755245)
((4, 12, 3, 0, 1, 0, 1, 2), 2, 4.165339950474077)
((-3, -4, 1, 16, 58, -6, 2, -1), 2, 4.185909800784455)
((-5, -3, -2, -10, -9, -3, -2, 10), 2, 4.206361623624652)
((-2, -1, -1, 2, -48, -2, -2, 3), 2, 4.2340581664461014)
((-3, 0, 0, -3, 12, -4, -2, -5), 2, 4.253625068350449)
((-6, 2, 1, 3, -3, -3, -4, -6), 2, 4.273555745742601)
((0, -3, 0, -4, 15, -6, -5, -7), 2, 4.292920803567508)
((-1, 2, -4, -1, 26, 2, -5, -2), 2, 4.3145015848181325)
((4, -3, 0, -4, -38, -7, 1, -11), 2, 4.334408314607638)
((0, 2, -2, 6, 45, -5, -3, -2), 2, 4.353237972459117)
((-3, 2, -5, -5, -11, -2, 1, 9), 2, 4.372997025365643)
((-2, -1, -2, -2, -13, -3, -2, -2), 2, 4.392600418854974)
((1, -6, -4, 0, -6, 1, -3, -6), 2, 4.411532709289218)
((-1, -3, 1, 2, -2, 8, 1, 1), 2, 4.429227136739101)
((0, -1, 6, 6, 39, 14, 0, 0), 2, 4.446113047509193)
((-4, -7, -1, -6, 36, 1, 1, -1), 2, 4.4674036066229945)
((-2, -7, -4, -1, -8, -14, -6, 0), 2, 4.486916911511898)
((-1, 1, -1, -1, 13, 0, -1, -2), 2, 4.505157572374502)
((-1, 1, -1, -1, 13, 0, -1, -2), 2, 4.523072659877331)
((-1, -1, -3, -2, -10, -10, -4, -6), 2, 4.547185044836184)
((-2, -5, -2, -2, -14, -2, -3, -2), 2, 4.567275943093654)
((-1, -1, -1, -4, -19, 0, 0, 4), 2, 4.587544167646903)
((-2, 0, -1, 1, 7, -3, 1, 4), 2, 4.607070016518144)
((1, -3, -3, -1, -12, 0, 0, 2), 2, 4.628558428444278)
((0, 0, 1, 0, 17, 3, 2, 5), 2, 4.65025381607899)
((-4, -6, -5, -5, -11, -4, -4, -1), 2, 4.671179459342958)
((1, 2, -1, 0, 13, 6, -2, 1), 2, 4.689988020496867)
((0, 1, 0, 1, -3, -1, -1, 2), 2, 4.710484317456263)
((1, 0, 0, 5, -16, 17, 4, -1), 2, 4.736635099545053)
((-2, -2, -4, -4, -8, -10, -6, -2), 2, 4.75584392777175)
((-1, -2, -2, -2, -4, -2, -4, -3), 2, 4.776933783168142)
((-1, 0, 0, 4, 8, 2, 1, 1), 2, 4.795620895765778)
((2, 2, 4, 7, -6, 5, 4, 0), 2, 4.81547288817781)
((-1, -3, -4, 1, -5, -3, -5, 1), 2, 4.835401855026915)
((-2, -1, -4, -1, -25, -7, -2, -1), 2, 4.854421953337526)
((-6, -12, -2, 0, 8, -2, -1, -1), 2, 4.874865223462493)
((-1, -2, -3, -1, 5, 2, -1, 0), 2, 4.895179632677986)
((-4, -4, -3, -3, -8, -2, -1, -2), 2, 4.914648463447691)
((2, 1, 0, -2, -2, -2, 1, -2), 2, 4.935576387435719)
((-3, 0, -2, -3, 19, -5, -5, -4), 2, 4.955341142152399)
((-3, -3, -3, -5, 4, -6, 2, -1), 2, 4.974959930529145)
((1, -2, 1, 0, -2, 6, 2, -2), 2, 4.997189577775257)
((-2, 0, 0, 2, 26, 1, 0, -1), 2, 5.0180792996352555)
((-1, 1, -1, -7, -20, -1, -1, -2), 2, 5.038419937177456)
((-1, -1, -1, 4, 15, 4, 1, -1), 2, 5.057465123452743)
((0, -1, -2, 2, 4, -5, -2, -2), 2, 5.078447214637231)
((-1, -1, -2, -1, -14, -4, -1, -3), 2, 5.098499910766671)
((-2, 1, 2, 0, -12, 0, 1, 1), 2, 5.118382122772517)
((-1, -4, -2, -5, 1, -5, -3, -3), 2, 5.139452592014387)
((-1, -1, -4, 1, 17, 1, 0, -2), 2, 5.16084521352994)
((-1, -2, -1, 0, -1, -1, -3, -2), 2, 5.179749565094431)
((1, -5, -13, -24, -22, 0, 4, -1), 2, 5.199005148164388)
((0, -5, -2, 16, -1, 4, -1, -1), 2, 5.225494617776305)
((1, 2, 9, 4, 14, 4, 0, 1), 2, 5.24860747541522)
((-2, 2, 0, 2, -3, 0, -3, -4), 2, 5.267783233143026)
((-3, -3, -2, -1, 6, 0, -4, -3), 2, 5.288207687294485)
((-1, 1, 4, 0, 8, 1, 0, -1), 0, 5.304985833852673)
((-1, 3, 5, 7, -6, -4, -1, -2), 0, 5.325146294194018)
((-3, 2, 6, -22, -3, -5, -2, -2), 0, 5.346235579409395)
((-2, 0, 8, 27, 9, 23, 1, -2), 0, 5.366187923680131)
((-1, 1, 1, 8, 3, -16, -3, -2), 0, 5.385777632825093)
((-12, -1, 4, 19, 6, -7, -5, 0), 0, 5.406551037757957)
((1, -2, -1, 13, -3, -4, -5, -4), 0, 5.429942713913386)
((-5, -2, -8, -46, 0, 11, 2, -1), 0, 5.449289525945802)
((3, -3, -6, 8, 3, -7, -2, -2), 0, 5.468669408477109)
((-7, -6, -11, -47, -4, 1, -5, -3), 0, 5.4887933772334705)
((0, -2, -2, -8, -5, -3, 0, -5), 0, 5.5072843475618205)
((-1, 0, -2, -23, -28, -4, -5, -1), 0, 5.527775512892078)
((-1, -1, 1, 16, 4, 0, -2, -4), 0, 5.54773812042109)
((1, -4, 0, 13, -47, -12, -2, -1), 0, 5.570306455190329)
((0, -2, -3, -3, 9, -9, -2, -1), 0, 5.588381193377462)
((1, 3, 1, -2, 20, 21, 1, 2), 0, 5.607448046531332)
((-1, 1, 2, 10, -9, 2, -5, -2), 0, 5.6269750357646044)
((-4, -2, -2, 3, 50, 22, 19, 3), 0, 5.647199356379669)
((-1, -3, 2, 0, -15, 29, 21, 5), 0, 5.667258894681295)
((17, 9, 2, 6, 4, -14, -41, 13), 0, 5.685897541892625)
((-9, 6, -4, -24, -4, -71, -44, -11), 0, 5.705835631637976)
((-4, -10, -6, -9, 11, 7, 10, -3), 0, 5.726808599926218)
((-11, -2, -6, 0, 8, 15, 13, -10), 0, 5.746320764453091)
((8, 6, 1, -3, 31, 18, 15, 87), 0, 5.7675822443351095)
((-9, 14, -2, 1, -19, 13, 9, -42), 0, 5.7861923824956705)
((-5, -22, -9, 2, -20, 45, -2, -73), 0, 5.80621200812622)
((22, -13, 5, 3, -5, -3, 8, -72), 0, 5.829759343698844)
((10, -2, 16, 8, -81, -11, 29, 15), 0, 5.849700854530288)
((-7, -29, -6, -4, 22, 2, 0, 12), 0, 5.8717212453437595)
((-6, 35, 7, 24, -28, -28, -22, 7), 0, 5.892413114391426)
((-25, 3, 2, 4, 0, 30, -3, 3), 0, 5.91463877037043)
((-1, 7, 1, -8, -50, -14, 16, 8), 0, 5.934427472689755)
((-10, -6, -7, -12, -7, 21, -4, -9), 0, 5.95293383790552)
((5, -3, -2, 2, 2, 47, 1, 0), 0, 5.973160439244647)
((6, 0, -3, -8, 25, -36, 3, 18), 0, 5.993124757316705)
((12, 0, 4, 16, -42, 11, 6, 10), 0, 6.0136512738699155)
((8, 1, 5, 5, -20, 20, 13, 10), 0, 6.032492905522716)
((2, 0, 2, 1, 10, -2, -2, 2), 0, 6.053245213758012)
((-4, 2, 1, 3, 33, 17, 6, 2), 0, 6.07673667159113)
((2, -3, 2, 8, 13, 9, 3, 0), 0, 6.096290459332124)
((-4, -2, -3, -9, -38, -11, -2, -4), 0, 6.115028318040128)
((-23, 4, -1, -3, 0, -5, -2, 0), 0, 6.132553971909462)
((-8, -3, -1, -7, 1, -7, -4, -5), 0, 6.152392850158139)
((-7, -1, -2, -7, 1, -4, -3, -2), 0, 6.172537915612069)
((12, 1, -2, -3, -5, 0, 0, 0), 0, 6.194045143511711)
((5, -8, -3, -1, 5, -2, -3, 0), 0, 6.217625549583226)
((5, -8, -3, -1, 5, -2, -3, 0), 0, 6.236287004035171)
((2, -4, -5, -3, -4, -3, -2, 0), 0, 6.256828915475796)
((2, -4, -5, -3, -4, -3, -2, 0), 0, 6.2782739936447625)
((-4, -1, 0, -1, -7, -3, -1, -1), 0, 6.298042169447535)
((0, -1, 1, 4, -23, 2, 1, 0), 0, 6.316321602619183)
((-2, -3, -3, -2, -1, -5, -3, -2), 0, 6.3369250936094685)
((-2, -3, -3, -2, -1, -5, -3, -2), 0, 6.3559235250414945)
((1, 0, 1, -2, -1, 0, -2, 0), 0, 6.376677543819836)
((-1, 1, -1, -3, -5, -12, -2, -3), 0, 6.395933697070809)
((-1, -4, 0, -5, -22, -5, -2, -2), 0, 6.415111165341661)
((-2, -1, -1, -4, 1, -4, -1, -2), 0, 6.4355960586807495)
((-2, -1, -1, -4, 1, -4, -1, -2), 0, 6.453597243516899)
((-1, -3, -1, -3, 4, 1, -1, -1), 0, 6.475220788343676)
((-2, -1, -4, -1, 5, 2, -1, -1), 0, 6.494296194212777)
((-2, 3, 2, 8, 23, 12, 1, 0), 0, 6.514399636452585)
((0, -1, 0, -2, -6, -1, -2, -1), 0, 6.532306171240184)
((-1, -2, -1, -2, -11, -2, -1, 1), 0, 6.5526570720406605)
((-1, 2, 2, 4, -10, 2, -1, -3), 0, 6.575756815516222)
((-2, 0, -1, 0, -12, 6, 0, -2), 0, 6.5944695862595495)
((1, 1, 2, 7, -4, -1, -1, 1), 0, 6.615245271916475)
((-2, -1, 0, -3, -1, 4, 2, -1), 0, 6.637913388363404)
((-2, -1, -1, -2, 2, 5, 1, 0), 0, 6.6605746626381475)
((-2, -2, -4, -7, -9, -1, -1, -1), 0, 6.6836738359326935)
((-2, -7, -7, -3, -11, -2, -2, -2), 0, 6.703341089695746)
((-2, 3, 7, 27, 3, -1, -3, -3), 0, 6.722407372668601)
((2, 0, 4, 28, -2, 1, -1, -1), 0, 6.7444083773275505)
((-2, 1, 5, -3, 4, -2, -3, -1), 0, 6.765357398013148)
((-2, -5, -4, 8, -5, 13, -2, -1), 0, 6.784294820076529)
((-6, -2, -6, 10, 4, -38, -5, -1), 0, 6.8030571965681945)
((1, 1, 1, -14, -8, -9, -1, -3), 0, 6.822383482084057)
((6, -4, -11, -55, -14, -1, 4, 11), 0, 6.842057007838278)
((-6, -1, 5, 9, 1, -4, -3, -6), 3, 6.861391275888356)
((1, 0, -1, 7, 2, -3, -1, 0), 3, 6.883528553809978)
((-2, -1, 5, -1, 4, 4, -5, -7), 0, 6.9019516725975)
((-4, -6, -2, -11, -3, 0, -2, 1), 0, 6.924391146457266)
((-1, 0, 1, 10, -38, 5, 2, 1), 0, 6.94418612076776)
((1, -3, -4, -4, -3, -7, -1, -2), 0, 6.96423767653517)
((-2, -1, 1, 3, 3, -5, -4, -1), 0, 6.984659849962568)
((-4, -2, 0, 5, 2, -5, -3, -2), 0, 7.001833131964405)
((0, 0, 2, 6, -1, 0, 7, 0), 0, 7.0224001313697055)
((-5, -4, -4, -14, 1, 2, -5, -3), 0, 7.044650875313386)
((2, -2, 0, -1, -6, -4, 0, -1), 0, 7.062461619690403)
((-3, -3, -5, -6, 22, -7, -4, -4), 0, 7.081976064941337)
((-2, -1, -1, 4, 5, -6, -1, -1), 0, 7.106522357652884)
((0, 1, -1, -3, -1, -19, -7, -2), 0, 7.126261454223872)
((2, 3, 5, 10, 0, 4, -4, 0), 0, 7.145729714812561)
((0, -2, 0, 2, 6, -17, -30, -3), 0, 7.165152360920021)
((-1, -3, 3, 26, 22, 75, 29, 1), 0, 7.187404245225732)
((2, 9, -1, -6, -11, -26, -4, 8), 0, 7.212282383288223)
((-11, 0, -5, -5, -5, -12, -3, -15), 0, 7.235740200441434)
((-11, -36, 4, 1, 10, 55, 8, -40), 0, 7.25458981462845)
((-1, 3, -5, -8, -38, -80, -24, -24), 0, 7.275644888982906)
((18, -4, 4, 53, 100, -109, 12, 14), 0, 7.299653500996961)
((-7, -7, -6, -42, 27, -87, -2, 13), 0, 7.31976663631403)
((-23, -1, 20, 43, -90, -31, 13, 4), 0, 7.339223493282413)
((-35, -11, 3, -17, -34, 28, -25, 11), 0, 7.358375873588588)
((-13, -1, -3, 26, 1, -51, -18, 0), 0, 7.3780032146805645)
((1, 7, -9, -17, 19, -37, -3, 5), 3, 7.39939184492901)
((10, 12, -2, -9, 45, 79, 5, 18), 3, 7.418805938321239)
((-15, 4, 3, 0, -15, 32, 3, -5), 3, 7.4419216468652305)
((-14, -11, -2, -6, -67, -63, -7, -36), 3, 7.4629636070563325)
((20, 16, 7, -2, -53, -12, 10, 79), 3, 7.481488218064589)
((-1, -7, -1, 9, -2, 7, -9, -4), 3, 7.501786662211653)
((0, 7, 2, 5, -7, 4, 0, 12), 3, 7.522608532530823)
((3, -1, -1, 5, 40, 5, -1, -7), 3, 7.543710361728538)
((-12, -1, 1, 3, 24, -11, 0, -36), 3, 7.563529283641678)
((6, -2, -2, -3, -14, -5, -3, -18), 3, 7.583027763824181)
((20, 1, 0, 3, -12, 1, -1, 2), 3, 7.602721816094956)
((0, -3, -3, -3, -1, -10, -2, 3), 3, 7.620975020939897)
((-3, -2, 0, -1, -19, 2, 0, -5), 3, 7.64170680265864)
((3, -2, 1, 2, -23, 4, 2, 6), 3, 7.6603260637154476)
((4, 0, -3, -11, 35, -5, -4, 1), 3, 7.67869729603057)
((-2, -2, -2, -7, 8, 5, -3, -6), 3, 7.700274086014087)
((9, 3, 4, 12, -17, 5, 4, 1), 3, 7.720298273092759)
((1, -1, 1, 0, 0, 6, -2, -1), 3, 7.739918201831536)
((-2, 0, 1, 4, -5, -2, 1, 0), 3, 7.759406418755763)
((0, 0, -1, -4, -10, 5, 4, 3), 3, 7.778419674894189)
((0, -1, 3, 0, 1, -11, -1, 0), 3, 7.798200964860314)
((0, -2, -2, 2, 13, 2, -2, -2), 3, 7.817364748786797)
((-2, -2, -1, -6, 3, 5, -1, -3), 3, 7.837736176103828)
((2, -1, 0, -1, 7, 9, 4, 4), 3, 7.860750962608099)
((0, -2, -1, 2, -12, -12, -7, -3), 3, 7.880793965660279)
((-11, -3, -5, -5, 1, 3, -1, -1), 3, 7.9015725022222805)
((3, -1, -3, -11, -3, -1, -1, -1), 3, 7.92188120962762)
((0, 0, -2, 1, -7, 0, 1, -1), 3, 7.944084628547025)
((0, -2, -4, -5, -7, -5, -2, -1), 3, 7.964774787051645)
((1, 0, 1, 1, -19, 4, 0, -2), 3, 7.983046237689079)
((1, 0, 0, -3, -9, -2, -2, -1), 3, 8.002398751531649)
((10, 1, -1, 1, 19, 7, 0, -1), 3, 8.025182614724697)
((-5, 0, -3, -1, -6, -6, -3, -1), 3, 8.04456534816108)
((4, -1, -1, -3, 2, 0, 0, -2), 3, 8.063403558727789)
((3, -1, -1, 1, 16, 0, -1, 2), 3, 8.083157480005177)
((-4, -3, -2, 3, 32, 1, 0, -1), 3, 8.102011655640316)
((0, 1, -2, -3, 1, -4, -3, -1), 3, 8.123813096943886)
((4, -1, 0, -1, -2, -1, 1, 2), 3, 8.143608641435396)
((-4, -1, -2, -9, -6, -7, -3, -1), 3, 8.162251850094849)
((1, 0, 0, 6, -28, -2, 3, -1), 3, 8.183550391742866)
((-2, 1, -1, 1, 4, -2, -3, -1), 3, 8.208517478043754)
((1, 1, -1, -4, -4, -1, 0, -2), 3, 8.23593007071955)
((-4, 0, -3, -3, 10, -3, -3, -1), 3, 8.256836898010011)
((3, 1, -4, -2, -3, 4, 1, 0), 3, 8.277411309768512)
((4, -3, 0, -2, -4, -3, -3, -1), 3, 8.298340374118572)
((15, 6, 3, 5, -3, 0, 1, 0), 3, 8.321084324640543)
((-5, 2, 3, 6, -23, 1, 1, 1), 3, 8.341034388187218)
((-1, 1, -2, -2, 10, 0, -3, -2), 3, 8.361608229764704)
((2, -1, 2, 0, -11, -8, -4, -1), 3, 8.379800995422016)
((25, 0, 3, 10, -36, 5, 5, 3), 3, 8.398940831745854)
((5, -2, -6, -4, -8, -1, -1, 0), 3, 8.420954950568158)
((-6, -2, 0, 0, -6, -1, -2, -2), 3, 8.441524800878534)
((-4, -2, -2, -6, 5, -5, -4, -2), 3, 8.462111756619374)
((1, -2, 4, 0, -4, -5, -3, -2), 3, 8.483677713163598)
((2, -1, 0, 6, 0, 3, 1, -1), 3, 8.503311896427759)
((0, 1, 0, 4, -28, 5, 1, 1), 3, 8.525286102578987)
((-3, -2, -3, -2, 6, -2, -2, -1), 3, 8.544271990028674)
((4, -3, -4, -1, 8, -5, -3, -4), 3, 8.56303436652034)
((4, 1, -2, -4, -18, 0, 0, 2), 3, 8.581045814614766)
((-4, -3, -1, -2, -7, -4, -3, -2), 3, 8.60175763999797)
((1, -3, -4, -4, -6, 0, 1, -2), 3, 8.623869829954916)
((-4, -2, -2, -6, -5, -1, -2, -1), 3, 8.64329190588136)
((-3, -2, -2, -4, 16, -2, 0, -2), 3, 8.663175828430251)
((4, -2, -3, -2, -4, -4, -3, -1), 3, 8.683694362449247)
((3, 2, 1, 11, 17, 14, 7, 0), 3, 8.706239889977871)
((3, 2, 1, 11, 17, 14, 7, 0), 3, 8.723636112756717)
((-1, -3, -2, -9, -5, -8, -6, -2), 0, 8.73987201716929)
((-1, -3, -2, -9, -5, -8, -6, -2), 0, 8.741025493363377)
((0, 0, -1, -2, 6, 2, 1, -1), 0, 8.742327216621462)
((-5, -2, 0, 2, -1, -2, -2, -3), 0, 8.74336608643146)
((-5, -2, 0, 2, -1, -2, -2, -3), 0, 8.744133550078143)
((-5, -2, 0, 2, -1, -2, -2, -3), 0, 8.744976277618855)
((-5, -2, 0, 2, -1, -2, -2, -3), 0, 8.745740320179447)
((-5, -2, 0, 2, -1, -2, -2, -3), 0, 8.74653002088573)
((-5, -2, 0, 2, -1, -2, -2, -3), 0, 8.747278098377892)
((-5, -2, 0, 2, -1, -2, -2, -3), 0, 8.748406486607303)
((-2, -2, -2, -4, -6, -1, -1, -2), 0, 8.74958219986099)
((-4, -4, -4, -8, -6, -3, -1, -2), 0, 8.751616035542805)
((-4, -4, -4, -8, -6, -3, -1, -2), 0, 8.753795837564551)
((-4, -4, -4, -8, -6, -3, -1, -2), 0, 8.755160280734325)
((-4, -4, -4, -8, -6, -3, -1, -2), 0, 8.756525864266129)
((-4, -4, -4, -8, -6, -3, -1, -2), 0, 8.762418685059947)
((-4, -4, -4, -8, -6, -3, -1, -2), 0, 8.763909708415131)
((-1, -3, -1, 0, -1, -1, -2, 0), 0, 8.7651441503134)
((-3, 1, 0, -2, -8, -2, 0, 0), 0, 8.766857544264578)
((-3, 1, 0, -2, -8, -2, 0, 0), 0, 8.768168390418907)
((-3, 1, 0, -2, -8, -2, 0, 0), 0, 8.76926940995958)
((-3, 1, 0, -2, -8, -2, 0, 0), 0, 8.772228649429334)
((-5, -2, -3, -2, 0, -4, -2, -2), 3, 8.784028545542354)
((-2, -3, -4, -8, -13, -2, -3, -2), 3, 8.805957137212351)
((1, 0, 1, 0, 11, 3, -1, -3), 3, 8.828154854321602)
((-1, -2, -2, -1, -2, -3, -1, 0), 3, 8.847379647616728)
((-4, 1, -1, 1, -2, 2, 1, 1), 3, 8.865952724011292)
((0, -3, -1, -5, 11, -5, -1, -1), 3, 8.88527843934614)
((0, -3, -1, -5, 11, -5, -1, -1), 3, 8.904272879511058)
((-3, -3, -2, -2, -1, -5, -2, -3), 3, 8.92442763804225)
((1, 0, -3, -2, 5, 3, 2, -1), 3, 8.945760960732203)
((-2, -1, -4, -2, -9, -2, -3, -1), 3, 8.964535881206206)
((1, 0, 1, 1, -1, -2, -2, 0), 3, 8.983788613371088)
((-2, -3, -3, -8, 2, -2, -1, -3), 3, 9.00440350798168)
((-2, 0, -1, 3, -5, 1, 0, -3), 3, 9.023189832075989)
((-3, -3, -2, -6, -1, 0, 0, -4), 3, 9.045937773865068)
((-2, -6, -10, -16, -10, -1, -2, -1), 3, 9.066360517473482)
((-3, -4, -3, 4, -3, -4, -2, -1), 3, 9.088112923209732)
((0, 2, 0, 0, 0, -1, 0, -2), 3, 9.1092278665708)
((-2, -2, 1, 0, -3, -3, -2, -4), 3, 9.13016548363609)
((-3, -1, 0, 0, 1, -3, -3, -4), 3, 9.154938708391754)
((-2, -1, -2, -8, -4, -3, -3, -2), 3, 9.174843727638214)
((-1, -6, -8, -29, -1, 2, 1, 6), 3, 9.196783152747503)
((-1, 0, -3, 6, -4, -1, -2, -6), 0, 9.21825274870013)
((-4, -6, -6, -3, -5, -1, -4, -1), 0, 9.244050018559392)
((0, 1, -3, -35, 4, -8, -2, -4), 0, 9.263311303439503)
((-2, -2, -1, -12, -3, -5, -1, -2), 0, 9.283355446853713)
((-3, -4, -6, -33, -9, 5, 1, -1), 0, 9.301790539442557)
((-2, -4, -2, 13, -1, 3, -1, -3), 0, 9.322300520746321)
((-3, -4, -3, -18, -10, -3, 0, -1), 0, 9.343334498403209)
((0, -2, -2, -9, -3, -6, -1, 0), 0, 9.363008024157429)
((0, 1, 8, 28, 14, 9, 2, -1), 0, 9.383284801425908)
((-2, 0, 2, 9, 0, 0, -2, -2), 0, 9.402851133149241)
((-1, -3, -10, -15, -31, 20, 3, 1), 0, 9.422416894691558)
((-1, 2, -5, 10, -21, -9, -5, -2), 0, 9.443560347103395)
((-2, -3, -18, -1, -13, -11, 0, -1), 0, 9.46474200164326)
((-1, -1, 2, -12, 2, 6, -3, 0), 0, 9.485992648085988)
((1, 3, 1, 16, 16, 2, -2, 0), 0, 9.506796842793682)
((-1, -5, -2, 26, 16, 7, -1, -2), 3, 9.525971460159457)
((0, -2, 1, 20, 7, 10, 3, 1), 0, 9.545095331414863)
((0, 4, 3, -6, 9, -37, 0, 0), 3, 9.56448148593734)
((-5, -8, -4, -46, -15, -5, -6, -3), 3, 9.581371958155556)
((0, 0, -3, 5, 3, 0, -2, -1), 0, 9.596896276660951)
((0, 0, -3, 5, 3, 0, -2, -1), 0, 9.597768083433447)
((0, 0, -3, 5, 3, 0, -2, -1), 0, 9.598700329393573)
((0, 0, -3, 5, 3, 0, -2, -1), 0, 9.599507705711332)
((0, 0, -3, 5, 3, 0, -2, -1), 0, 9.600441662214504)
((0, 0, -3, 5, 3, 0, -2, -1), 0, 9.601505619989178)
((0, 0, -3, 5, 3, 0, -2, -1), 0, 9.603766957896124)
((0, 0, -3, 5, 3, 0, -2, -1), 0, 9.604926135900364)
((0, -1, -2, -7, 0, 13, -1, -3), 0, 9.605989523494024)
((0, -1, -2, -7, 0, 13, -1, -3), 0, 9.606720495555724)
((0, -1, -2, -7, 0, 13, -1, -3), 0, 9.607551249295113)
((0, -1, -2, -7, 0, 13, -1, -3), 0, 9.608327835838043)
((0, -1, -2, -7, 0, 13, -1, -3), 0, 9.609243546548722)
((0, -1, -2, -7, 0, 13, -1, -3), 0, 9.610477988446993)
((0, -1, -2, -7, 0, 13, -1, -3), 0, 9.611344093409334)
((0, -1, -2, -7, 0, 13, -1, -3), 0, 9.612133794115618)
((0, -1, -2, -7, 0, 13, -1, -3), 0, 9.612853362557011)
((0, -1, -2, -7, 0, 13, -1, -3), 0, 9.613652756340555)
((0, -1, -2, -7, 0, 13, -1, -3), 0, 9.61508961249928)
((0, -1, -2, -7, 0, 13, -1, -3), 0, 9.616172956428477)
((0, -1, -2, -7, 0, 13, -1, -3), 0, 9.616918753196577)
((0, -1, -2, -7, 0, 13, -1, -3), 0, 9.61781678829578)
((0, -1, -2, -7, 0, 13, -1, -3), 0, 9.61951877862665)
((0, -1, -2, -7, 0, 13, -1, -3), 0, 9.620461287845052)
((0, -1, -2, -7, 0, 13, -1, -3), 0, 9.621275506334996)
((0, -1, -2, -7, 0, 13, -1, -3), 0, 9.622157006184754)
((0, -1, -2, -7, 0, 13, -1, -3), 0, 9.622914776754175)
((0, -1, -2, -7, 0, 13, -1, -3), 0, 9.623904040815837)
((0, -1, -2, -7, 0, 13, -1, -3), 0, 9.624662381566276)
((0, -1, -2, -7, 0, 13, -1, -3), 0, 9.625774804727257)
((1, 1, 5, 9, 7, 4, 0, 1), 0, 9.62712442319063)
((1, 1, 5, 9, 7, 4, 0, 1), 0, 9.62828018010878)
((-2, -2, -3, 12, 0, -6, 0, -1), 0, 9.629211855887888)
((-2, -2, -3, 12, 0, -6, 0, -1), 0, 9.62998103007762)
((-2, -2, -3, 12, 0, -6, 0, -1), 0, 9.630797529291625)
((-2, -2, -3, 12, 0, -6, 0, -1), 0, 9.631714380364334)
((-2, -2, -3, 12, 0, -6, 0, -1), 0, 9.633255009467856)
((-2, -2, -3, 12, 0, -6, 0, -1), 0, 9.6343030021741)
((-3, -4, -1, 7, 4, 7, 0, 0), 0, 9.635776349917808)
((-3, -4, -1, 7, 4, 7, 0, 0), 0, 9.636979431860233)
((-3, -4, -1, 7, 4, 7, 0, 0), 0, 9.637912248001372)
((-3, -4, -1, 7, 4, 7, 0, 0), 0, 9.638939714191064)
((-3, -4, -1, 7, 4, 7, 0, 0), 0, 9.63968722150221)
((-3, -4, -1, 7, 4, 7, 0, 0), 0, 9.640678196106919)
((-3, -4, -1, 7, 4, 7, 0, 0), 0, 9.641666319806548)
((-3, -4, -1, 7, 4, 7, 0, 0), 0, 9.64377313865833)
((-3, -4, -1, 7, 4, 7, 0, 0), 0, 9.644437969722247)
((-3, -4, -1, 7, 4, 7, 0, 0), 0, 9.645789298728667)
((-3, -4, -1, 7, 4, 7, 0, 0), 0, 9.6467107112495)
((-3, -4, -1, 7, 4, 7, 0, 0), 0, 9.64847428113003)
((-3, -4, -1, 7, 4, 7, 0, 0), 0, 9.649300473421297)
((-3, -4, -1, 7, 4, 7, 0, 0), 0, 9.65009017412758)
((-3, -4, -1, 7, 4, 7, 0, 0), 0, 9.650843953429895)
((-3, -4, -1, 7, 4, 7, 0, 0), 0, 9.653198230842346)
((-3, -4, -1, 7, 4, 7, 0, 0), 0, 9.654227977756099)
((-3, -4, -1, 7, 4, 7, 0, 0), 0, 9.655359216890586)
((-3, -4, -1, 7, 4, 7, 0, 0), 0, 9.656539491592396)
((-1, 0, 4, 11, 5, 4, -1, -1), 0, 9.65768099398516)
((-1, 0, 4, 11, 5, 4, -1, -1), 0, 9.65847354559652)
((-1, 0, 4, 11, 5, 4, -1, -1), 0, 9.659237017976096)
((-1, 0, 4, 11, 5, 4, -1, -1), 0, 9.660169834117237)
((-1, 0, 4, 11, 5, 4, -1, -1), 0, 9.661250897322374)
((-1, 0, 4, 11, 5, 4, -1, -1), 0, 9.662973414169796)
((-1, 0, 4, 11, 5, 4, -1, -1), 0, 9.66378136066857)
((-1, 0, 4, 11, 5, 4, -1, -1), 0, 9.664610403864915)
((-1, 0, 4, 11, 5, 4, -1, -1), 0, 9.665453131405627)
((-1, 0, 4, 11, 5, 4, -1, -1), 0, 9.666305552023601)
((-1, 0, 4, 11, 5, 4, -1, -1), 0, 9.667140297030098)
((-1, 0, 4, 11, 5, 4, -1, -1), 0, 9.668164912314712)
((-1, 0, 4, 11, 5, 4, -1, -1), 0, 9.669202071581665)
((-1, 0, 4, 11, 5, 4, -1, -1), 0, 9.670325898362954)
((-1, 0, 4, 11, 5, 4, -1, -1), 0, 9.672415611784274)
((-1, 0, 4, 11, 5, 4, -1, -1), 0, 9.673674571466204)
((-1, 0, 4, 11, 5, 4, -1, -1), 0, 9.67446142126741)
((-1, 0, 4, 11, 5, 4, -1, -1), 0, 9.675220902379879)
((-1, 0, 4, 11, 5, 4, -1, -1), 0, 9.675960997337825)
((-1, 0, 4, 11, 5, 4, -1, -1), 0, 9.676719908269279)
((-1, 0, 4, 11, 5, 4, -1, -1), 0, 9.677804392560507)
((-1, 0, 4, 11, 5, 4, -1, -1), 0, 9.679073045319697)
((-3, -2, -5, -6, -11, -5, -2, -3), 0, 9.680177485946464)
((0, -1, 0, 2, 6, 4, -1, -1), 0, 9.680946660136193)
((0, -1, 0, 2, 6, 4, -1, -1), 0, 9.682067636012405)
((0, -1, 0, 2, 6, 4, -1, -1), 0, 9.682881854502348)
((0, -1, 0, 2, 6, 4, -1, -1), 0, 9.683720590775954)
((0, -1, 0, 2, 6, 4, -1, -1), 0, 9.684645994563894)
((0, -1, 0, 2, 6, 4, -1, -1), 0, 9.687007684329544)
((0, -1, 0, 2, 6, 4, -1, -1), 0, 9.68830541632052)
((0, -1, 0, 2, 6, 4, -1, -1), 0, 9.68949424373756)
((0, -1, 0, 2, 6, 4, -1, -1), 0, 9.69093281043933)
((0, -1, 0, 2, 6, 4, -1, -1), 0, 9.691720800602567)
((0, -1, 0, 2, 6, 4, -1, -1), 0, 9.69254243144571)
((0, -1, 0, 2, 6, 4, -1, -1), 0, 9.693449019260145)
((-3, -3, -5, 8, -5, 2, 0, 0), 0, 9.694685741882475)
((1, 2, 7, 6, 0, -1, -1, -3), 0, 9.695646496893369)
((1, 2, 7, 6, 0, -1, -1, -3), 0, 9.696565058509124)
((1, 2, 7, 6, 0, -1, -1, -3), 0, 9.697420330032175)
((1, 2, 7, 6, 0, -1, -1, -3), 0, 9.698207179833382)
((1, 2, 7, 6, 0, -1, -1, -3), 0, 9.698937581714066)
((1, 2, 7, 6, 0, -1, -1, -3), 0, 9.700205664292243)
((1, 2, 7, 6, 0, -1, -1, -3), 0, 9.701915066976312)
((-1, 1, -2, -2, -2, 3, -1, -1), 0, 9.703308019196854)
((-1, 1, -2, -2, -2, 3, -1, -1), 0, 9.704074912662524)
((-1, 1, -2, -2, -2, 3, -1, -1), 0, 9.704893122419575)
((-1, 1, -2, -2, -2, 3, -1, -1), 0, 9.70591032535099)
((-1, 1, -2, -2, -2, 3, -1, -1), 0, 9.70689958941265)
((-1, 1, -2, -2, -2, 3, -1, -1), 0, 9.707831835372776)
((-1, 1, -2, -2, -2, 3, -1, -1), 0, 9.709272112617592)
((-1, 1, -2, -2, -2, 3, -1, -1), 0, 9.710169007354764)
((-1, 1, -2, -2, -2, 3, -1, -1), 0, 9.710893707425296)
((-1, 1, -2, -2, -2, 3, -1, -1), 0, 9.71176722474084)
((-1, 1, -2, -2, -2, 3, -1, -1), 0, 9.712609382100535)
((-1, 1, -2, -2, -2, 3, -1, -1), 0, 9.713494303036384)
((-1, 1, -2, -2, -2, 3, -1, -1), 0, 9.714429970082602)
((-1, 1, -2, -2, -2, 3, -1, -1), 0, 9.715285811786668)
((-1, 1, -2, -2, -2, 3, -1, -1), 0, 9.716459814497309)
((-1, 1, -2, -2, -15, 2, -1, -3), 0, 9.718434351353524)
((-1, 1, -2, -2, -15, 2, -1, -3), 0, 9.719713267370992)
((-1, 1, -2, -2, -15, 2, -1, -3), 0, 9.720589065410596)
((-1, 1, -2, -2, -15, 2, -1, -3), 0, 9.721377055573832)
((-1, 1, -2, -2, -15, 2, -1, -3), 0, 9.72222776564876)
((-1, 1, -2, -2, -15, 2, -1, -3), 0, 9.723255802019468)
((-1, 1, -2, -2, -15, 2, -1, -3), 0, 9.724190328703653)
((-1, 1, -2, -2, -15, 2, -1, -3), 0, 9.725350647069925)
((-1, 1, -2, -2, -15, 2, -1, -3), 0, 9.726924916853353)
((-1, 1, -2, -2, -15, 2, -1, -3), 0, 9.727731722990098)
((-1, 1, -2, -2, -15, 2, -1, -3), 0, 9.728716995784652)
((-1, 1, -2, -2, -15, 2, -1, -3), 0, 9.729542047713888)
((-1, 1, -2, -2, -15, 2, -1, -3), 0, 9.730597452773331)
((-1, 1, -2, -2, -15, 2, -1, -3), 0, 9.731891763678215)
((-2, -1, -1, -1, 2, 0, -2, -3), 0, 9.732972256702336)
((-2, -1, -1, -1, 2, 0, -2, -3), 0, 9.734048758459348)
((-2, -1, -1, -1, 2, 0, -2, -3), 0, 9.736401895509767)
((-2, -1, -1, -1, 2, 0, -2, -3), 0, 9.737238351059311)
((-2, -1, -1, -1, 2, 0, -2, -3), 0, 9.738374721822938)
((-2, -1, -1, -1, 2, 0, -2, -3), 0, 9.739491136251026)
((-2, -1, -1, -1, 2, 0, -2, -3), 0, 9.740637200091912)
((-2, -1, -1, -1, 2, 0, -2, -3), 0, 9.742057521001191)
((-2, -1, -1, -1, 2, 0, -2, -3), 0, 9.742864897318952)
((-2, -1, -1, -1, 2, 0, -2, -3), 0, 9.743348981000999)
((-2, -1, -1, -1, 2, 0, -2, -3), 0, 9.744176883835312)
((0, 2, -1, 5, -5, -7, -1, -2), 0, 9.74669765410425)
((-1, -6, -2, -15, -7, 1, 1, -3), 0, 9.747862533918644)
((-1, -6, -2, -15, -7, 1, 1, -3), 0, 9.749161406271648)
((-1, -6, -2, -15, -7, 1, 1, -3), 0, 9.749973914218547)
((-1, -6, -2, -15, -7, 1, 1, -3), 0, 9.751291032364044)
((-1, -6, -2, -15, -7, 1, 1, -3), 0, 9.75236354285395)
((-1, -6, -2, -15, -7, 1, 1, -3), 0, 9.753704038421077)
((-2, -5, -2, -5, 3, -1, -3, -3), 0, 9.754745759136153)
((-1, -4, -2, 11, 0, -1, 0, 1), 0, 9.755995025740821)
((-1, -4, -2, 11, 0, -1, 0, 1), 0, 9.756849727082857)
((-1, -4, -2, 11, 0, -1, 0, 1), 0, 9.757937632460177)
((-1, -4, -2, 11, 0, -1, 0, 1), 0, 9.759200013228199)
((-1, -4, -2, 11, 0, -1, 0, 1), 0, 9.760032477510636)
((-1, -4, -2, 11, 0, -1, 0, 1), 0, 9.761270340494997)
((-1, -4, -2, 11, 0, -1, 0, 1), 0, 9.762286403064381)
((-1, -4, -2, 11, 0, -1, 0, 1), 0, 9.763182157439521)
((-1, -4, -2, 11, 0, -1, 0, 1), 0, 9.763976419593929)
((-1, -4, -2, 11, 0, -1, 0, 1), 0, 9.765073447867495)
((-1, -4, -2, 11, 0, -1, 0, 1), 0, 9.766003413103558)
((-1, -4, -2, 11, 0, -1, 0, 1), 0, 9.766896886754639)
((-1, -4, -2, 11, 0, -1, 0, 1), 0, 9.768240803407858)
((-1, -4, -2, 11, 0, -1, 0, 1), 0, 9.769789985226609)
((1, 3, 3, 7, -2, 1, 3, 1), 0, 9.770790082727563)
((1, 3, 3, 7, -2, 1, 3, 1), 0, 9.771579783433847)
((1, 3, 3, 7, -2, 1, 3, 1), 0, 9.772399703733944)
((1, 3, 3, 7, -2, 1, 3, 1), 0, 9.774068623565924)
((1, 3, 3, 7, -2, 1, 3, 1), 0, 9.775031089119864)
((1, 3, 3, 7, -2, 1, 3, 1), 0, 9.776533516095355)
((1, 3, 3, 7, -2, 1, 3, 1), 0, 9.777716071521226)
((1, 3, 3, 7, -2, 1, 3, 1), 0, 9.778733274452641)
((1, 3, 3, 7, -2, 1, 3, 1), 0, 9.77960223032006)
((1, 3, 3, 7, -2, 1, 3, 1), 0, 9.780443247317725)
((1, 3, 3, 7, -2, 1, 3, 1), 0, 9.781281413410316)
((1, 3, 3, 7, -2, 1, 3, 1), 0, 9.781988437869371)
((1, 3, 3, 7, -2, 1, 3, 1), 0, 9.78344182927754)
((1, 3, 3, 7, -2, 1, 3, 1), 0, 9.785048599378845)
((-1, 2, 1, 24, 67, 8, 0, 2), 0, 9.786365717524342)
((-1, 2, 1, 24, 67, 8, 0, 2), 0, 9.7872101556081)
((-1, 2, 1, 24, 67, 8, 0, 2), 0, 9.787971917444631)
((-1, 2, 1, 24, 67, 8, 0, 2), 0, 9.788767319961067)
((-1, 2, 1, 24, 67, 8, 0, 2), 0, 9.789574696278828)
((-1, 2, 1, 24, 67, 8, 0, 2), 0, 9.790437380155078)
((-1, 2, 1, 24, 67, 8, 0, 2), 0, 9.791631339201256)
((-1, 2, 1, 24, 67, 8, 0, 2), 0, 9.793783772534267)
((-1, 2, 1, 24, 67, 8, 0, 2), 0, 9.794891064066109)
((-1, 2, 1, 24, 67, 8, 0, 2), 0, 9.795922521522908)
((-1, 2, 1, 24, 67, 8, 0, 2), 0, 9.797049199209273)
((-1, 2, 1, 24, 67, 8, 0, 2), 0, 9.798224342281944)
((-1, 2, 1, 24, 67, 8, 0, 2), 0, 9.799054525840319)
((0, -2, -3, -2, -20, -1, -2, -1), 0, 9.800158396286069)
((0, -2, -3, -2, -20, -1, -2, -1), 0, 9.801416215605968)
((0, -2, -3, -2, -20, -1, -2, -1), 0, 9.803459744365044)
((0, -2, -3, -2, -20, -1, -2, -1), 0, 9.804203830590097)
((0, -2, -3, -2, -20, -1, -2, -1), 0, 9.804950197539213)
((0, -2, -3, -2, -20, -1, -2, -1), 0, 9.80600275169358)
((0, 0, -1, -3, -5, -14, -3, -2), 0, 9.807034209150379)
((0, -4, 6, -17, 35, 15, 0, -3), 0, 9.807861541803677)
((0, -4, 6, -17, 35, 15, 0, -3), 0, 9.808697427172204)
((0, -4, 6, -17, 35, 15, 0, -3), 0, 9.80960743607273)
((0, -4, 6, -17, 35, 15, 0, -3), 0, 9.8107899914986)
((0, -4, 6, -17, 35, 15, 0, -3), 0, 9.81177355375011)
((0, -4, 6, -17, 35, 15, 0, -3), 0, 9.813628922774113)
((0, -4, 6, -17, 35, 15, 0, -3), 0, 9.814581125069775)
((0, -4, 6, -17, 35, 15, 0, -3), 0, 9.815501967409594)
((0, -4, 6, -17, 35, 15, 0, -3), 0, 9.81630478227923)
((0, -4, 6, -17, 35, 15, 0, -3), 0, 9.817157202897203)
((0, -4, 6, -17, 35, 15, 0, -3), 0, 9.818723490146416)
((0, -4, 6, -17, 35, 15, 0, -3), 0, 9.820013809784193)
((0, -4, 6, -17, 35, 15, 0, -3), 0, 9.821241409510277)
((0, -1, -3, -19, -33, -9, -2, -2), 0, 9.823073401112651)
((0, -1, -3, -19, -33, -9, -2, -2), 0, 9.823904725033056)
((0, -1, -3, -19, -33, -9, -2, -2), 0, 9.824660785059432)
((0, -1, -3, -19, -33, -9, -2, -2), 0, 9.825435090878301)
((0, -1, -3, -19, -33, -9, -2, -2), 0, 9.82628808167729)
((0, -1, -3, -19, -33, -9, -2, -2), 0, 9.827210634560155)
((0, -1, -3, -19, -33, -9, -2, -2), 0, 9.828458760802793)
((0, -1, -3, -19, -33, -9, -2, -2), 0, 9.829446314321407)
((0, -1, -3, -19, -33, -9, -2, -2), 0, 9.830357463583963)
((0, -1, -3, -19, -33, -9, -2, -2), 0, 9.832209411521875)
((0, -1, -3, -19, -33, -9, -2, -2), 0, 9.832959199557083)
((0, -1, -3, -19, -33, -9, -2, -2), 0, 9.833852673208163)
((0, -1, -3, -19, -33, -9, -2, -2), 0, 9.835872254364594)
((0, -1, -3, -19, -33, -9, -2, -2), 0, 9.83733476866901)
((0, -1, -3, -19, -33, -9, -2, -2), 0, 9.838247058293597)
((0, -1, -3, -19, -33, -9, -2, -2), 0, 9.838978030355296)
((0, -1, -3, -19, -33, -9, -2, -2), 0, 9.839702160244812)
((0, -1, -3, -19, -33, -9, -2, -2), 0, 9.840495852218204)
((0, -1, -3, -19, -33, -9, -2, -2), 0, 9.842062709648433)
((0, -1, -3, -19, -33, -9, -2, -2), 0, 9.843135790319353)
((0, -1, -3, -19, -33, -9, -2, -2), 0, 9.844268739996886)
((-3, -1, 0, -9, -17, -6, -2, -4), 0, 9.845791693488932)
((-3, -1, 0, -9, -17, -6, -2, -4), 0, 9.84676784338724)
((-3, -1, 0, -9, -17, -6, -2, -4), 0, 9.84764763269395)
((-3, -1, 0, -9, -17, -6, -2, -4), 0, 9.849061681612062)
((-3, -1, 0, -9, -17, -6, -2, -4), 0, 9.850057217664892)
((-3, -1, 0, -9, -17, -6, -2, -4), 0, 9.85256430358946)
((0, -1, -1, -2, -22, -7, -1, -1), 0, 9.854146555907104)
((0, -1, -1, -2, -22, -7, -1, -1), 0, 9.854940247880494)
((0, -1, -1, -2, -22, -7, -1, -1), 0, 9.855818896825175)
((0, -1, -1, -2, -22, -7, -1, -1), 0, 9.856625702961919)
((0, -1, -1, -2, -22, -7, -1, -1), 0, 9.857429088012571)
((0, -1, -1, -2, -22, -7, -1, -1), 0, 9.858504449407553)
((0, -1, -1, -2, -22, -7, -1, -1), 0, 9.859358010387558)
((0, -1, -1, -2, -22, -7, -1, -1), 0, 9.860135167111503)
((0, -1, -1, -2, -22, -7, -1, -1), 0, 9.861367898466726)
((0, -1, -1, -2, -22, -7, -1, -1), 0, 9.862385671579156)
((0, -1, -1, -2, -22, -7, -1, -1), 0, 9.863784325609851)
((0, -1, -1, -2, -22, -7, -1, -1), 0, 9.864788984558928)
((0, -1, -1, -2, -22, -7, -1, -1), 0, 9.865986934872215)
((0, 3, 9, -4, -10, 2, -1, -1), 0, 9.866936856443814)
((0, -2, -6, -2, 6, -4, 1, 0), 0, 9.868210070651129)
((0, -2, -6, -2, 6, -4, 1, 0), 0, 9.869313370915865)
((0, -2, -6, -2, 6, -4, 1, 0), 0, 9.87141220723343)
((0, -2, -6, -2, 6, -4, 1, 0), 0, 9.87224524169688)
((0, -2, -6, -2, 6, -4, 1, 0), 0, 9.873382182641523)
((0, -2, -6, -2, 6, -4, 1, 0), 0, 9.874248857784881)
((-6, -5, -2, 3, -15, -6, -3, -2), 0, 9.875144612160023)
((-6, -5, -2, 3, -15, -6, -3, -2), 0, 9.875922909245999)
((-6, -5, -2, 3, -15, -6, -3, -2), 0, 9.876729715382742)
((-6, -5, -2, 3, -15, -6, -3, -2), 0, 9.877512003735825)
((-6, -5, -2, 3, -15, -6, -3, -2), 0, 9.878472188565704)
((-6, -5, -2, 3, -15, -6, -3, -2), 0, 9.879605138243239)
((-6, -5, -2, 3, -15, -6, -3, -2), 0, 9.881738755602742)
((-6, -5, -2, 3, -15, -6, -3, -2), 0, 9.882891091434798)
((-6, -5, -2, 3, -15, -6, -3, -2), 0, 9.883789126534001)
((-6, -5, -2, 3, -15, -6, -3, -2), 0, 9.884956857253473)
((-6, -5, -2, 3, -15, -6, -3, -2), 0, 9.886151956661681)
((-6, -5, -2, 3, -15, -6, -3, -2), 0, 9.887229598780724)
((-6, -5, -2, 3, -15, -6, -3, -2), 0, 9.88841785601675)
((-6, -5, -2, 3, -15, -6, -3, -2), 0, 9.88936036523515)
((1, 2, -3, 10, -23, -14, -3, 0), 0, 9.89112279475365)
((1, 2, -3, 10, -23, -14, -3, 0), 0, 9.8919928909831)
((1, 2, -3, 10, -23, -14, -3, 0), 0, 9.892740968475263)
((1, 2, -3, 10, -23, -14, -3, 0), 0, 9.893559178232314)
((1, 2, -3, 10, -23, -14, -3, 0), 0, 9.89442585337567)
((1, 2, -3, 10, -23, -14, -3, 0), 0, 9.895480118073085)
((1, 2, -3, 10, -23, -14, -3, 0), 0, 9.896766446443753)
((1, 2, -3, 10, -23, -14, -3, 0), 0, 9.89840970813004)
((1, 2, -3, 10, -23, -14, -3, 0), 0, 9.90002674148962)
((1, 2, -3, 10, -23, -14, -3, 0), 0, 9.901083857092111)
((1, 2, -3, 10, -23, -14, -3, 0), 0, 9.902433475555485)
((1, 2, -3, 10, -23, -14, -3, 0), 0, 9.903868621171164)
((-3, 7, 2, 3, 12, -3, 0, -3), 0, 9.904924596411623)
((-1, 0, 0, -10, -7, -7, -3, -2), 0, 9.905754779969998)
((-1, 0, 0, -10, -7, -7, -3, -2), 0, 9.906630578009601)
((-1, 0, 0, -10, -7, -7, -3, -2), 0, 9.907393480208162)
((-1, 0, 0, -10, -7, -7, -3, -2), 0, 9.909077794927555)
((-1, 0, 0, -10, -7, -7, -3, -2), 0, 9.909890873055469)
((-1, 0, 0, -10, -7, -7, -3, -2), 0, 9.911047200154632)
((-1, 0, 0, -10, -7, -7, -3, -2), 0, 9.9121071666622)
((-1, 0, 0, -10, -7, -7, -3, -2), 0, 9.913014324657649)
((-1, 0, 0, -10, -7, -7, -3, -2), 0, 9.914249906917949)
((-1, 0, 0, -10, -7, -7, -3, -2), 0, 9.915700447421044)
((-1, 0, 0, -10, -7, -7, -3, -2), 0, 9.916575105098616)
((-1, 0, 0, -10, -7, -7, -3, -2), 0, 9.919250964603732)
((-1, 0, 0, -10, -7, -7, -3, -2), 0, 9.92041071278899)
((-1, 1, -6, 0, -8, -5, -4, -3), 0, 9.92146896875351)
((-1, 1, -6, 0, -8, -5, -4, -3), 0, 9.922359021318497)
((-1, 1, -6, 0, -8, -5, -4, -3), 0, 9.923133327137366)
((-1, 1, -6, 0, -8, -5, -4, -3), 0, 9.923943554360203)
((-1, 1, -6, 0, -8, -5, -4, -3), 0, 9.924715009273994)
((-1, 1, -6, 0, -8, -5, -4, -3), 0, 9.925784668858823)
((0, -5, -1, 16, -12, 5, -1, -2), 0, 9.926789897988915)
((-2, -4, -8, -43, -13, -10, -1, -2), 0, 9.928108156496442)
((-2, -4, -8, -43, -13, -10, -1, -2), 0, 9.928936629511771)
((-2, -4, -8, -43, -13, -10, -1, -2), 0, 9.92987685800611)
((-2, -4, -8, -43, -13, -10, -1, -2), 0, 9.930735550615253)
((-2, -4, -8, -43, -13, -10, -1, -2), 0, 9.93212907301681)
((-2, -4, -8, -43, -13, -10, -1, -2), 0, 9.933750097643498)
((-2, -4, -8, -43, -13, -10, -1, -2), 0, 9.934926951259216)
((-2, -4, -8, -43, -13, -10, -1, -2), 0, 9.936948813139708)
((-2, -4, -8, -43, -13, -10, -1, -2), 0, 9.937913559417709)
((-2, -4, -8, -43, -13, -10, -1, -2), 0, 9.93889541112617)
((-2, -4, -8, -43, -13, -10, -1, -2), 0, 9.939780902243035)
((-2, -4, -8, -43, -13, -10, -1, -2), 0, 9.940643015938269)
((-2, -4, -8, -43, -13, -10, -1, -2), 0, 9.941437278092677)
((-2, -4, -8, -43, -13, -10, -1, -2), 0, 9.94217167124047)
((-2, -4, -8, -43, -13, -10, -1, -2), 0, 9.94301953041032)
((-2, -4, -8, -43, -13, -10, -1, -2), 0, 9.943819494374878)
((-2, -4, -8, -43, -13, -10, -1, -2), 0, 9.944689590604328)
((-2, -4, -8, -43, -13, -10, -1, -2), 0, 9.946193728122868)
((-2, -4, -8, -43, -13, -10, -1, -2), 0, 9.946948077606198)
((-2, -4, -8, -43, -13, -10, -1, -2), 0, 9.947875191937184)
((1, 0, 1, 2, 19, 1, -1, 0), 0, 9.949782447433586)
((-2, 0, 1, 7, -4, 4, 0, -1), 0, 9.952700633870235)
((-2, 0, 1, 7, -4, 4, 0, -1), 0, 9.953618625304976)
((-2, 0, 1, 7, -4, 4, 0, -1), 0, 9.954949997975858)
((-2, 0, 1, 7, -4, 4, 0, -1), 0, 9.95678598084534)
((-1, 2, 6, 7, 0, 0, 0, -2), 0, 9.9578048943198)
((-1, 2, 6, 7, 0, 0, 0, -2), 0, 9.958710911953219)
((-1, 2, 6, 7, 0, 0, 0, -2), 0, 9.959541665692607)
((-1, 2, 6, 7, 0, 0, 0, -2), 0, 9.960342199838182)
((-1, 2, 6, 7, 0, 0, 0, -2), 0, 9.961168962310465)
((-1, 2, 6, 7, 0, 0, 0, -2), 0, 9.961925592517856)
((-1, 2, 6, 7, 0, 0, 0, -2), 0, 9.962724986301401)
((-1, 2, 6, 7, 0, 0, 0, -2), 0, 9.964224562371816)
((-1, 2, 6, 7, 0, 0, 0, -2), 0, 9.96513970290148)
((-1, 2, 6, 7, 0, 0, 0, -2), 0, 9.966352477921166)
((-1, 2, 6, 7, 0, 0, 0, -2), 0, 9.9680048625037)
((-1, 2, 6, 7, 0, 0, 0, -2), 0, 9.969608781699927)
((-1, 2, 6, 7, 0, 0, 0, -2), 0, 9.970764538618075)
((-1, 2, 6, 7, 0, 0, 0, -2), 0, 9.97170533729343)
((-2, -2, -9, -16, -3, 0, -1, -3), 0, 9.973280177257873)
((-2, -2, -9, -16, -3, 0, -1, -3), 0, 9.974319047067873)
((-2, -2, -9, -16, -3, 0, -1, -3), 0, 9.975213090899969)
((-2, -2, -9, -16, -3, 0, -1, -3), 0, 9.976124240162525)
((-2, -2, -9, -16, -3, 0, -1, -3), 0, 9.977035959606097)
((-2, -2, -9, -16, -3, 0, -1, -3), 0, 9.977975047738406)
((-2, -2, -9, -16, -3, 0, -1, -3), 0, 9.979055540762525)
((-2, -2, -9, -16, -3, 0, -1, -3), 0, 9.979940461698375)
((-2, -2, -9, -16, -3, 0, -1, -3), 0, 9.980686258466475)
((-2, -2, -9, -16, -3, 0, -1, -3), 0, 9.982262808973966)
((-2, -2, -9, -16, -3, 0, -1, -3), 0, 9.9836072958082)
((-2, -2, -9, -16, -3, 0, -1, -3), 0, 9.986624123560507)
((-2, -2, -9, -16, -3, 0, -1, -3), 0, 9.987656721379336)
((-1, -1, -2, 6, -9, 1, -5, -5), 0, 9.988630590553583)
((-1, -1, -2, 6, -9, 1, -5, -5), 0, 9.989475598818357)
((-1, -1, -2, 6, -9, 1, -5, -5), 0, 9.99121294037218)
((-1, -1, -2, 6, -9, 1, -5, -5), 0, 9.992188520089472)
((-1, -1, -2, 6, -9, 1, -5, -5), 0, 9.99324962695907)
((-1, -1, -2, 6, -9, 1, -5, -5), 0, 9.99413568825695)
((-1, -4, -1, -9, -2, 3, 0, 7), 0, 9.995040565528338)
((-1, -4, -1, -9, -2, 3, 0, 7), 0, 9.995847941846097)
((-1, -4, -1, -9, -2, 3, 0, 7), 0, 9.996665011241118)
((-1, -4, -1, -9, -2, 3, 0, 7), 0, 9.997401114931957)
((-1, -4, -1, -9, -2, 3, 0, 7), 0, 9.99811213065812)
((-1, -4, -1, -9, -2, 3, 0, 7), 0, 9.99898963924077)
((-1, -4, -1, -9, -2, 3, 0, 7), 0, 10.001855369024003)
((0, 1, -2, 2, 7, 2, 1, -2), 0, 10.00358757894869)
((0, -1, -1, -7, -9, -4, 0, 0), 0, 10.004821450665943)
((0, -1, -1, -7, -9, -4, 0, 0), 0, 10.005702380334684)
((0, -1, -1, -7, -9, -4, 0, 0), 0, 10.006490940678937)
((0, -1, -1, -7, -9, -4, 0, 0), 0, 10.007274939575067)
((0, -1, -1, -7, -9, -4, 0, 0), 0, 10.008620566771333)
((-2, -4, -1, 6, 2, 4, 0, -4), 0, 10.010174880219223)
((-2, -4, -1, 6, 2, 4, 0, -4), 0, 10.011004493596582)
((-2, -4, -1, 6, 2, 4, 0, -4), 0, 10.011842089508157)
((-2, -4, -1, 6, 2, 4, 0, -4), 0, 10.01261810587007)
((-2, -4, -1, 6, 2, 4, 0, -4), 0, 10.013446578885398)
((-2, -4, -1, 6, 2, 4, 0, -4), 0, 10.014217463618175)
((-2, -4, -1, 6, 2, 4, 0, -4), 0, 10.014953567309014)
((-2, -4, -1, 6, 2, 4, 0, -4), 0, 10.016193711017436)
((-2, -4, -1, 6, 2, 4, 0, -4), 0, 10.01815000208116)
((-2, -4, -1, 6, 2, 4, 0, -4), 0, 10.020086906990363)
((-2, -4, -1, 6, 2, 4, 0, -4), 0, 10.021311085630355)
((-2, -4, -1, 6, 2, 4, 0, -4), 0, 10.022148111360913)
((-2, -4, -1, 6, 2, 4, 0, -4), 0, 10.023237157100265)
((-2, -4, -1, 6, 2, 4, 0, -4), 0, 10.024278307634324)
((-1, 0, -3, 5, -3, -5, -2, -1), 0, 10.025168930380328)
((-1, 0, -3, 5, -3, -5, -2, -1), 0, 10.026088062177099)
((-1, 0, -3, 5, -3, -5, -2, -1), 0, 10.026761445956248)
((-1, 0, -3, 5, -3, -5, -2, -1), 0, 10.027583076799392)
((-1, 0, -3, 5, -3, -5, -2, -1), 0, 10.029096907395191)
((-1, 0, -3, 5, -3, -5, -2, -1), 0, 10.029829589999938)
((-1, 0, -3, 5, -3, -5, -2, -1), 0, 10.030801748631138)
((-1, 0, -3, 5, -3, -5, -2, -1), 0, 10.031723161151971)
((-1, 0, -3, 5, -3, -5, -2, -1), 0, 10.032639442043665)
((-1, 0, -3, 5, -3, -5, -2, -1), 0, 10.033601907597605)
((-1, 0, -3, 5, -3, -5, -2, -1), 0, 10.03495380678504)
((-1, 0, -3, 5, -3, -5, -2, -1), 0, 10.036551453990098)
((-1, 0, -3, 5, -3, -5, -2, -1), 0, 10.038764326510737)
((-1, 0, -3, 5, -3, -5, -2, -1), 0, 10.03979407342449)
((-1, 0, -3, 5, -3, -5, -2, -1), 0, 10.040649915128556)
((-1, 0, -3, 5, -3, -5, -2, -1), 0, 10.04156619602025)
((-1, 0, -3, 5, -3, -5, -2, -1), 0, 10.042547477547696)
((-1, 0, -3, 5, -3, -5, -2, -1), 0, 10.04350709219656)
((-1, 0, -3, 5, -3, -5, -2, -1), 0, 10.044380039331086)
((-1, 0, -3, 5, -3, -5, -2, -1), 0, 10.045110441211772)
((-1, 0, -3, 5, -3, -5, -2, -1), 0, 10.046155012831925)
((0, 1, 1, 8, 0, 0, 1, 3), 0, 10.048120996972909)
((0, 1, 1, 8, 0, 0, 1, 3), 0, 10.04890100460193)
((0, 1, 1, 8, 0, 0, 1, 3), 0, 10.04980816259738)
((0, 1, 1, 8, 0, 0, 1, 3), 0, 10.051557477952526)
((0, 1, 1, 8, 0, 0, 1, 3), 0, 10.05321841525029)
((0, 1, 1, 8, 0, 0, 1, 3), 0, 10.054166056097829)
((0, 1, 1, 8, 0, 0, 1, 3), 0, 10.05573633461415)
((0, 1, 1, 8, 0, 0, 1, 3), 0, 10.057621923231968)
((0, 1, 1, 8, 0, 0, 1, 3), 0, 10.058489168556342)
((0, 1, 1, 8, 0, 0, 1, 3), 0, 10.05936439641493)
((0, 1, 1, 8, 0, 0, 1, 3), 0, 10.060323440882778)
((0, 1, 1, 8, 0, 0, 1, 3), 0, 10.061155334984198)
((0, 1, 1, 8, 0, 0, 1, 3), 0, 10.061995211619832)
((0, 1, 1, 8, 0, 0, 1, 3), 0, 10.06282995662633)
((0, 1, 1, 8, 0, 0, 1, 3), 0, 10.06357575339443)
((0, 1, 1, 8, 0, 0, 1, 3), 0, 10.064325541429637)
((0, 1, 1, 8, 0, 0, 1, 3), 0, 10.065093575257338)
((0, 1, 1, 8, 0, 0, 1, 3), 0, 10.065958539857649)
((0, 1, 1, 8, 0, 0, 1, 3), 0, 10.068792909685039)
((0, 1, 1, 8, 0, 0, 1, 3), 0, 10.070404241234465)
((0, -2, -3, -3, 0, 1, -2, -2), 0, 10.07197280920774)
((0, -2, -3, -3, 0, 1, -2, -2), 0, 10.0730287844482)
((0, -2, -3, -3, 0, 1, -2, -2), 0, 10.073799669180975)
((0, -2, -3, -3, 0, 1, -2, -2), 0, 10.074619019300057)
((0, -2, -3, -3, 0, 1, -2, -2), 0, 10.075568940871658)
((0, -2, -3, -3, 0, 1, -2, -2), 0, 10.077265799573391)
((0, -2, -3, -3, 0, 1, -2, -2), 0, 10.078178659378993)
((0, -2, -3, -3, 0, 1, -2, -2), 0, 10.07904533452235)
((0, -2, -3, -3, 0, 1, -2, -2), 0, 10.079876658442755)
((0, -2, -3, -3, 0, 1, -2, -2), 0, 10.080679473312392)
((0, -2, -3, -3, 0, 1, -2, -2), 0, 10.081457200217352)
((0, -2, -3, -3, 0, 1, -2, -2), 0, 10.08219216354616)
((0, -2, -3, -3, 0, 1, -2, -2), 0, 10.083155199281116)
((-2, 1, 0, -3, -2, -2, -1, -1), 0, 10.084813285673803)
((-1, -1, 0, -5, -4, -5, -1, -3), 0, 10.086971420816967)
((-1, -1, 0, -5, -4, -5, -1, -3), 0, 10.08810323013247)
((-1, -1, 0, -5, -4, -5, -1, -3), 0, 10.089240741258127)
((-1, -1, 0, -5, -4, -5, -1, -3), 0, 10.090019608525118)
((-1, -1, 0, -5, -4, -5, -1, -3), 0, 10.09119475159779)
((-2, -3, 0, 6, -2, -1, -1, -2), 0, 10.092210814167174)
((0, -3, 0, 0, -3, 4, -1, -1), 0, 10.09300393595955)
((0, -3, 0, 0, -3, 4, -1, -1), 0, 10.09376455743405)
((0, -3, 0, 0, -3, 4, -1, -1), 0, 10.094677417239652)
((0, -3, 0, 0, -3, 4, -1, -1), 0, 10.096300152409386)
((0, -3, 0, 0, -3, 4, -1, -1), 0, 10.097098976011914)
((0, -3, 0, 0, -3, 4, -1, -1), 0, 10.098216530802034)
((0, -3, 0, 0, -3, 4, -1, -1), 0, 10.099152197848252)
((0, -3, 0, 0, -3, 4, -1, -1), 0, 10.099969267243273)
((0, -3, 0, 0, -3, 4, -1, -1), 0, 10.10160511657636)
((0, -3, 0, 0, -3, 4, -1, -1), 0, 10.102810479242844)
((0, -3, 0, 0, -3, 4, -1, -1), 0, 10.103744435746016)
((0, -3, 0, 0, -3, 4, -1, -1), 0, 10.105627173458759)
((0, -3, 0, 0, -3, 4, -1, -1), 0, 10.107322321617444)
((-1, 0, -1, -1, -2, 0, 0, -1), 0, 10.10854364935236)
((-1, 0, -1, -1, -2, 0, 0, -1), 0, 10.109336771144735)
((-1, 0, -1, -1, -2, 0, 0, -1), 0, 10.110196033934894)
((-1, 0, -1, -1, -2, 0, 0, -1), 0, 10.110951523780255)
((-1, 0, -1, -1, -2, 0, 0, -1), 0, 10.11176802299426)
((-1, 0, -1, -1, -2, 0, 0, -1), 0, 10.112743032530538)
((-1, 0, -1, -1, -2, 0, 0, -1), 0, 10.113808700848258)
((-1, -3, -4, -8, -10, -2, 0, -4), 0, 10.115340777236549)
((-1, -3, -4, -8, -10, -2, 0, -4), 0, 10.116074600203326)
((-1, -3, -4, -8, -10, -2, 0, -4), 0, 10.116819256609396)
((-1, -3, -4, -8, -10, -2, 0, -4), 0, 10.118609054816632)
((-1, -3, -4, -8, -10, -2, 0, -4), 0, 10.119663889695062)
((-1, -3, -4, -8, -10, -2, 0, -4), 0, 10.120792848105488)
((-1, -3, -4, -8, -10, -2, 0, -4), 0, 10.121884174568901)
((-1, 2, -1, 9, 7, -1, 0, 6), 0, 10.123162520405353)
((-1, 2, -1, 9, 7, -1, 0, 6), 0, 10.124687184440445)
((-1, 2, -1, 9, 7, -1, 0, 6), 0, 10.125577807186447)
((-1, 2, -1, 9, 7, -1, 0, 6), 0, 10.126356674453438)
((-1, 2, -1, 9, 7, -1, 0, 6), 0, 10.12708365524803)
((-1, 2, -1, 9, 7, -1, 0, 6), 0, 10.127963444554743)
((-1, 2, -1, 9, 7, -1, 0, 6), 0, 10.129006875812864)
((-2, -3, -3, 3, -1, 0, -2, -2), 0, 10.130208817393259)
((-2, -3, -3, 3, -1, 0, -2, -2), 0, 10.131018474435079)
((-2, -3, -3, 3, -1, 0, -2, -2), 0, 10.131784227538716)
((-2, -3, -3, 3, -1, 0, -2, -2), 0, 10.132576779150076)
((-2, -3, -3, 3, -1, 0, -2, -2), 0, 10.133352225330976)
((-2, -3, -3, 3, -1, 0, -2, -2), 0, 10.135898083564589)
((-2, -3, -3, 3, -1, 0, -2, -2), 0, 10.137215201710086)
((-2, -3, -3, 3, -1, 0, -2, -2), 0, 10.138107534999136)
((-2, -3, -3, 3, -1, 0, -2, -2), 0, 10.139205133453718)
((-2, -3, -3, 3, -1, 0, -2, -2), 0, 10.140401943404973)
((-2, -3, -3, 3, -1, 0, -2, -2), 0, 10.141139187457842)
((-2, -3, -3, 3, -1, 0, -2, -2), 0, 10.141984765903631)
((-2, -3, -3, 3, -1, 0, -2, -2), 0, 10.142848590141913)
((-1, 0, 0, 1, 2, -4, 0, 0), 0, 10.144324218609682)
((-3, -7, -7, -1, 0, 7, -2, 0), 0, 10.145229666062084)
((-3, -7, -7, -1, 0, 7, -2, 0), 0, 10.146134543333472)
((-3, -7, -7, -1, 0, 7, -2, 0), 0, 10.147079333275935)
((-3, -7, -7, -1, 0, 7, -2, 0), 0, 10.147928902988832)
((-3, -7, -7, -1, 0, 7, -2, 0), 0, 10.148723735324253)
((-3, -7, -7, -1, 0, 7, -2, 0), 0, 10.14945527756697)
((-3, -7, -7, -1, 0, 7, -2, 0), 0, 10.150190240895776)
((-3, -7, -7, -1, 0, 7, -2, 0), 0, 10.151473718361368)
((-3, -7, -7, -1, 0, 7, -2, 0), 0, 10.15342031634783)
((-3, -7, -7, -1, 0, 7, -2, 0), 0, 10.154268175517682)
((-3, -7, -7, -1, 0, 7, -2, 0), 0, 10.155139412109163)
((-3, -7, -7, -1, 0, 7, -2, 0), 0, 10.159197960576543)
((-3, -7, -7, -1, 0, 7, -2, 0), 0, 10.160268190342387)
((-3, -7, -7, -1, 0, 7, -2, 0), 0, 10.1623835619094)
((-3, -7, -7, -1, 0, 7, -2, 0), 0, 10.163150455375067)
((-3, -7, -7, -1, 0, 7, -2, 0), 0, 10.164148842332976)
((-3, -7, -7, -1, 0, 7, -2, 0), 0, 10.165067974129746)
((-3, -7, -7, -1, 0, 7, -2, 0), 0, 10.166292722950756)
((-3, -2, -2, -9, -3, -1, 0, -4), 0, 10.168070547356669)
((-3, -2, -2, -9, -3, -1, 0, -4), 0, 10.169271918756047)
((-3, -2, -2, -9, -3, -1, 0, -4), 0, 10.170289691868478)
((-3, -2, -2, -9, -3, -1, 0, -4), 0, 10.171555493722591)
((-3, -2, -2, -9, -3, -1, 0, -4), 0, 10.172394800177212)
((-2, -3, -4, -3, 0, -3, -1, 0), 0, 10.174503899753054)
((1, 3, 2, 6, 0, -1, -2, -1), 0, 10.176039397227438)
((1, 3, 2, 6, 0, -1, -2, -1), 0, 10.177019538392853)
((1, 3, 2, 6, 0, -1, -2, -1), 0, 10.177900468061596)
((1, 3, 2, 6, 0, -1, -2, -1), 0, 10.178788810083537)
((1, 3, 2, 6, 0, -1, -2, -1), 0, 10.17964750269268)
((1, 3, 2, 6, 0, -1, -2, -1), 0, 10.181445853615147)
((1, 3, 2, 6, 0, -1, -2, -1), 0, 10.182378099575272)
((1, 3, 2, 6, 0, -1, -2, -1), 0, 10.18325218707183)
((1, 3, 2, 6, 0, -1, -2, -1), 0, 10.184738648978891)
((1, 3, 2, 6, 0, -1, -2, -1), 0, 10.186084846356172)
((1, 3, 2, 6, 0, -1, -2, -1), 0, 10.187033057384728)
((1, 3, 2, 6, 0, -1, -2, -1), 0, 10.188204779371308)
((1, 3, 2, 6, 0, -1, -2, -1), 0, 10.189248780810443)
((1, -3, -2, -3, -3, 1, -2, 0), 0, 10.190428485331237)
((1, -3, -2, -3, -3, 1, -2, 0), 0, 10.191420600297977)
((1, -3, -2, -3, -3, 1, -2, 0), 0, 10.192369381507547)
((1, -3, -2, -3, -3, 1, -2, 0), 0, 10.19366141168837)
((1, -3, -2, -3, -3, 1, -2, 0), 0, 10.194515542849388)
((1, -3, -2, -3, -3, 1, -2, 0), 0, 10.195456341524745)
((1, -3, -2, -3, -3, 1, -2, 0), 0, 10.196553939979324)
((0, -1, 1, -4, -2, 1, 0, -1), 0, 10.197534651325757)
((-1, 0, -2, -8, -1, -4, 0, -1), 0, 10.19829356225721)
((-1, 0, -2, -8, -1, -4, 0, -1), 0, 10.199613531307785)
((-1, 0, -2, -8, -1, -4, 0, -1), 0, 10.20079437619061)
((-1, 0, -2, -8, -1, -4, 0, -1), 0, 10.202466146927666)
((-1, 0, -2, -8, -1, -4, 0, -1), 0, 10.203252426547856)
((-1, 0, -2, -8, -1, -4, 0, -1), 0, 10.204034144719925)
((-1, 0, -2, -8, -1, -4, 0, -1), 0, 10.205203585982442)
((-1, 0, -2, -8, -1, -4, 0, -1), 0, 10.206326842582715)
((-1, 0, -2, -8, -1, -4, 0, -1), 0, 10.207488301311017)
((-1, 0, -2, -8, -1, -4, 0, -1), 0, 10.213000811367586)
((0, 0, 2, 5, 3, -2, -2, 0), 0, 10.214304245168714)
((0, 0, 2, 5, 3, -2, -2, 0), 0, 10.215194297733701)
((0, 0, 2, 5, 3, -2, -2, 0), 0, 10.21603018310223)
((0, 0, 2, 5, 3, -2, -2, 0), 0, 10.216955016709155)
((0, 0, 2, 5, 3, -2, -2, 0), 0, 10.219739780788206)
((0, 0, 2, 5, 3, -2, -2, 0), 0, 10.220692553264884)
((0, 0, 2, 5, 3, -2, -2, 0), 0, 10.221617957052825)
((0, 0, 2, 5, 3, -2, -2, 0), 0, 10.222480640929076)
((0, 0, 2, 5, 3, -2, -2, 0), 0, 10.223331351004003)
((0, 0, 2, 5, 3, -2, -2, 0), 0, 10.22441583529523)
((0, 0, 2, 5, 3, -2, -2, 0), 0, 10.225348651436372)
((0, 0, 2, 5, 3, -2, -2, 0), 0, 10.226454232425167)
((0, 0, 2, 5, 3, -2, -2, 0), 0, 10.227738280071774)
((0, 0, 2, 5, 3, -2, -2, 0), 0, 10.22945794601412)
((0, 0, 2, 5, 3, -2, -2, 0), 0, 10.23025790997868)
((0, 0, 2, 5, 3, -2, -2, 0), 0, 10.231092654985178)
((0, 0, 2, 5, 3, -2, -2, 0), 0, 10.231823056865863)
((0, 0, 2, 5, 3, -2, -2, 0), 0, 10.232572844901071)
((0, 0, 2, 5, 3, -2, -2, 0), 0, 10.233918472097336)
((0, 0, 2, 5, 3, -2, -2, 0), 0, 10.236305820008678)
((0, 0, 2, 5, 3, -2, -2, 0), 0, 10.237240346692865)
((0, 0, 2, 5, 3, -2, -2, 0), 0, 10.238355050577907)
((0, 0, 2, 5, 3, -2, -2, 0), 0, 10.239141900379114)
((0, 0, 2, 5, 3, -2, -2, 0), 0, 10.240026251133948)
((0, 0, 2, 5, 3, -2, -2, 0), 0, 10.241284070453847)
((2, -1, -2, -1, -2, 0, 1, 9), 0, 10.24242101139849)
((-1, -1, -3, -5, -1, 1, -2, -5), 0, 10.24365773402082)
((-1, -1, -3, -5, -1, 1, -2, -5), 0, 10.244845991256843)
((-1, -1, -3, -5, -1, 1, -2, -5), 0, 10.245836965861551)
((-1, -1, -3, -5, -1, 1, -2, -5), 0, 10.24742491998935)
((-1, -1, -3, -5, -1, 1, -2, -5), 0, 10.248590940165775)
((0, -2, 0, 5, 0, -1, 0, 0), 0, 10.249783758849922)
((-4, -5, 1, 2, -1, -3, -3, -5), 0, 10.251292457816582)
((-4, -5, 1, 2, -1, -3, -3, -5), 0, 10.252754972121)
((-4, -5, 1, 2, -1, -3, -3, -5), 0, 10.25360397165288)
((-4, -5, 1, 2, -1, -3, -3, -5), 0, 10.25455047213839)
((-4, -5, 1, 2, -1, -3, -3, -5), 0, 10.25528030383806)
((-4, -5, 1, 2, -1, -3, -3, -5), 0, 10.256487377047591)
((-4, -5, 1, 2, -1, -3, -3, -5), 0, 10.257409929930455)
((-4, -5, 1, 2, -1, -3, -3, -5), 0, 10.2594597306807)
((-4, -5, 1, 2, -1, -3, -3, -5), 0, 10.260133684640863)
((-4, -5, 1, 2, -1, -3, -3, -5), 0, 10.261245537620828)
((-4, -5, 1, 2, -1, -3, -3, -5), 0, 10.262687525408692)
((-4, -5, 1, 2, -1, -3, -3, -5), 0, 10.263867229929486)
((-4, -5, 1, 2, -1, -3, -3, -5), 0, 10.265320621337656)
((-4, -5, 1, 2, -1, -3, -3, -5), 0, 10.266138260913692)
((-4, -5, 1, 2, -1, -3, -3, -5), 0, 10.267001514970957)
((-4, -5, 1, 2, -1, -3, -3, -5), 0, 10.268073455279847)
((-4, -5, 1, 2, -1, -3, -3, -5), 0, 10.2693295640567)
((-4, -5, 1, 2, -1, -3, -3, -5), 0, 10.2708433946525)
((-4, -5, 1, 2, -1, -3, -3, -5), 0, 10.27189936989296)
((-2, 0, 0, 8, -2, 0, -2, 1), 0, 10.272856133636745)
((-2, 0, 0, 8, -2, 0, -2, 1), 0, 10.274496544417957)
((-2, 0, 0, 8, -2, 0, -2, 1), 0, 10.27540940422356)
((-2, 0, 0, 8, -2, 0, -2, 1), 0, 10.276199104929843)
((-2, 0, 0, 8, -2, 0, -2, 1), 0, 10.277215737680242)
((-2, 0, 0, 8, -2, 0, -2, 1), 0, 10.278262590024456)
((-2, 0, 0, 8, -2, 0, -2, 1), 0, 10.27919996761372)
((-2, 0, 0, 8, -2, 0, -2, 1), 0, 10.28045493602854)
((-2, 0, 0, 8, -2, 0, -2, 1), 0, 10.281226961123348)
((-2, 0, 0, 8, -2, 0, -2, 1), 0, 10.281955082279971)
((-2, 0, 0, 8, -2, 0, -2, 1), 0, 10.283425579118603)
((-2, 0, 0, 8, -2, 0, -2, 1), 0, 10.284808838261883)
((-2, 0, 0, 8, -2, 0, -2, 1), 0, 10.286470345740662)
((-1, 0, -4, -4, 0, -1, -1, -2), 0, 10.28760899722835)
((0, 1, 2, 6, 4, -1, 1, 0), 0, 10.288510453413645)
((0, 1, 2, 6, 4, -1, 1, 0), 0, 10.289260811629868)
((0, 1, 2, 6, 4, -1, 1, 0), 0, 10.29006419668052)
((0, 1, 2, 6, 4, -1, 1, 0), 0, 10.290906354040217)
((0, 1, 2, 6, 4, -1, 1, 0), 0, 10.292542203373305)
((0, 1, 2, 6, 4, -1, 1, 0), 0, 10.293883269121448)
((-1, 2, 0, -1, 2, 3, -1, -1), 0, 10.29525512464442)
((-1, 2, 0, -1, 2, 3, -1, -1), 0, 10.296211888388207)
((-1, 2, 0, -1, 2, 3, -1, -1), 0, 10.29742010195977)
((-1, 2, 0, -1, 2, 3, -1, -1), 0, 10.298318137058972)
((-1, 2, 0, -1, 2, 3, -1, -1), 0, 10.299128934462823)
((-1, 2, 0, -1, 2, 3, -1, -1), 0, 10.29996139874526)
((-1, 2, 0, -1, 2, 3, -1, -1), 0, 10.301965585014274)
((-3, -1, -1, -5, -2, -2, -2, -1), 0, 10.303379633932385)
((-3, -1, -1, -5, -2, -2, -2, -1), 0, 10.304310169349463)
((-3, -1, -1, -5, -2, -2, -2, -1), 0, 10.305169432139621)
((-3, -1, -1, -5, -2, -2, -2, -1), 0, 10.30599676479292)
((-3, -1, -1, -5, -2, -2, -2, -1), 0, 10.306767079344679)
((-3, -1, -1, -5, -2, -2, -2, -1), 0, 10.307671386435052)
((-3, -1, -1, -5, -2, -2, -2, -1), 0, 10.308779248147909)
((-3, -1, -1, -5, -2, -2, -2, -1), 0, 10.309723467909357)
((-3, -1, -1, -5, -2, -2, -2, -1), 0, 10.311441993489673)
((-3, -1, -1, -5, -2, -2, -2, -1), 0, 10.312417003025951)
((-3, -1, -1, -5, -2, -2, -2, -1), 0, 10.313584163564407)
((-3, -1, -1, -5, -2, -2, -2, -1), 0, 10.3148009298512)
((-3, -1, -1, -5, -2, -2, -2, -1), 0, 10.31601940668104)
((-3, -7, -3, 2, -1, -4, -1, 0), 0, 10.317352489894967)
((0, -6, -1, -13, -2, 1, -1, -1), 0, 10.318756845735816)
((0, -6, -1, -13, -2, 1, -1, -1), 0, 10.320675504852526)
((0, -6, -1, -13, -2, 1, -1, -1), 0, 10.321683584887694)
((0, -6, -1, -13, -2, 1, -1, -1), 0, 10.322467583783824)
((0, -6, -1, -13, -2, 1, -1, -1), 0, 10.323548646988959)
((0, -6, -1, -13, -2, 1, -1, -1), 0, 10.32455159539499)
((0, -6, -1, -13, -2, 1, -1, -1), 0, 10.325379498229303)
((0, -6, -1, -13, -2, 1, -1, -1), 0, 10.326198848348385)
((0, -6, -1, -13, -2, 1, -1, -1), 0, 10.327042716251128)
((0, -6, -1, -13, -2, 1, -1, -1), 0, 10.32791509320464)
((0, -6, -1, -13, -2, 1, -1, -1), 0, 10.328836505725473)
((0, -6, -1, -13, -2, 1, -1, -1), 0, 10.330984947791375)
((0, -6, -1, -13, -2, 1, -1, -1), 0, 10.3322028544402)
((0, -6, -1, -13, -2, 1, -1, -1), 0, 10.332994835870544)
((0, -6, -1, -13, -2, 1, -1, -1), 0, 10.334129496091125)
((0, -6, -1, -13, -2, 1, -1, -1), 0, 10.33534341147284)
((0, -6, -1, -13, -2, 1, -1, -1), 0, 10.33639824635127)
((0, -6, -1, -13, -2, 1, -1, -1), 0, 10.337141762395307)
((0, -6, -1, -13, -2, 1, -1, -1), 0, 10.338195456911706)
((0, -6, -1, -13, -2, 1, -1, -1), 0, 10.339531961211726)
((2, -10, -5, 1, -3, -1, 0, -1), 0, 10.340582804823047)
((2, -10, -5, 1, -3, -1, 0, -1), 0, 10.34139588295096)
((2, -10, -5, 1, -3, -1, 0, -1), 0, 10.342175320398967)
((2, -10, -5, 1, -3, -1, 0, -1), 0, 10.343059100972786)
((2, -10, -5, 1, -3, -1, 0, -1), 0, 10.343856784213283)
((2, -10, -5, 1, -3, -1, 0, -1), 0, 10.344627098765045)
((2, -10, -5, 1, -3, -1, 0, -1), 0, 10.345471536848803)
((2, -10, -5, 1, -3, -1, 0, -1), 0, 10.346832558932483)
((2, -10, -5, 1, -3, -1, 0, -1), 0, 10.348017965263432)
((2, -10, -5, 1, -3, -1, 0, -1), 0, 10.349695437810642)
((2, -10, -5, 1, -3, -1, 0, -1), 0, 10.351249181077517)
((2, -10, -5, 1, -3, -1, 0, -1), 0, 10.35227778762924)
((2, -10, -5, 1, -3, -1, 0, -1), 0, 10.353921049315526)
((-4, -2, -1, -6, -2, 0, 0, -1), 0, 10.355103604741398)
((-1, 3, -2, 2, 0, -2, -2, 0), 0, 10.356224010436593)
((-1, 3, -2, 2, 0, -2, -2, 0), 0, 10.357104940105335)
((-1, 3, -2, 2, 0, -2, -2, 0), 0, 10.357955650180262)
((-1, 3, -2, 2, 0, -2, -2, 0), 0, 10.360994714992168)
((-1, 3, -2, 2, 0, -2, -2, 0), 0, 10.362231437614499)
((-1, 3, -2, 2, 0, -2, -2, 0), 0, 10.36331934299182)
((-1, 3, -2, 2, 0, -2, -2, 0), 0, 10.364188869040253)
((-1, 3, -2, 2, 0, -2, -2, 0), 0, 10.36527107260742)
((-1, 3, -2, 2, 0, -2, -2, 0), 0, 10.36645134730923)
((-1, 3, -2, 2, 0, -2, -2, 0), 0, 10.367592849701994)
((-1, 3, -2, 2, 0, -2, -2, 0), 0, 10.369561684748057)
((-1, 3, -2, 2, 0, -2, -2, 0), 0, 10.37060739673024)
((-1, 3, -2, 2, 0, -2, -2, 0), 0, 10.37140850105683)
((-1, 3, -2, 2, 0, -2, -2, 0), 0, 10.37223184244302)
((-1, 3, -2, 2, 0, -2, -2, 0), 0, 10.373107640482624)
((-1, 3, -2, 2, 0, -2, -2, 0), 0, 10.373953218928413)
((-1, 3, -2, 2, 0, -2, -2, 0), 0, 10.374769718142419)
((-1, 3, -2, 2, 0, -2, -2, 0), 0, 10.375985344067182)
((-1, -4, 0, 1, -1, -5, -1, -2), 0, 10.377018512067027)
((-2, -6, -5, -2, -4, 1, -2, -2), 0, 10.37849242999175)
((-2, -6, -5, -2, -4, 1, -2, -2), 0, 10.379287262327171)
((-2, -6, -5, -2, -4, 1, -2, -2), 0, 10.380098059731022)
((-2, -6, -5, -2, -4, 1, -2, -2), 0, 10.380920830936198)
((-2, -6, -5, -2, -4, 1, -2, -2), 0, 10.381815444949307)
((-2, -6, -5, -2, -4, 1, -2, -2), 0, 10.382866858741645)
((-2, -6, -5, -2, -4, 1, -2, -2), 0, 10.384940607094535)
((-1, -3, -4, -4, -2, -3, -3, -3), 0, 10.386355796374675)
((1, 4, 3, 7, -2, -3, -2, 0), 0, 10.387519535827039)
((1, 4, 3, 7, -2, -3, -2, 0), 0, 10.388392482961565)
((1, 4, 3, 7, -2, -3, -2, 0), 0, 10.389159376427234)
((1, 4, 3, 7, -2, -3, -2, 0), 0, 10.390191974246063)
((1, 4, 3, 7, -2, -3, -2, 0), 0, 10.391656769274542)
((-4, -2, -4, -9, 0, 1, -2, -1), 0, 10.392709893609924)
((-4, -2, -4, -9, 0, 1, -2, -1), 0, 10.39351898047073)
((-4, -2, -4, -9, 0, 1, -2, -1), 0, 10.394345742943012)
((-4, -2, -4, -9, 0, 1, -2, -1), 0, 10.395128601477111)
((-4, -2, -4, -9, 0, 1, -2, -1), 0, 10.396509009715315)
((-4, -2, -4, -9, 0, 1, -2, -1), 0, 10.39734888635095)
((-4, -2, -4, -9, 0, 1, -2, -1), 0, 10.398362668196272)
((-4, -2, -4, -9, 0, 1, -2, -1), 0, 10.399381581670733)
((-4, -2, -4, -9, 0, 1, -2, -1), 0, 10.401532304460698)
((-4, -2, -4, -9, 0, 1, -2, -1), 0, 10.402982274782776)
((-4, -2, -4, -9, 0, 1, -2, -1), 0, 10.403872327347763)
((-4, -2, -4, -9, 0, 1, -2, -1), 0, 10.40543690405393)
((-4, -2, -4, -9, 0, 1, -2, -1), 0, 10.406590380248018)
((1, 0, -1, 10, 5, 0, -1, -1), 0, 10.407657759108785)
((-2, -4, -1, -5, -7, -4, -2, -1), 0, 10.408419520945314)
((-2, -4, -1, -5, -7, -4, -2, -1), 0, 10.409316415682486)
((-2, -4, -1, -5, -7, -4, -2, -1), 0, 10.410194494446152)
((-2, -4, -1, -5, -7, -4, -2, -1), 0, 10.41099217768665)
((-2, -4, -1, -5, -7, -4, -2, -1), 0, 10.411753369342165)
((-2, -4, -1, -5, -7, -4, -2, -1), 0, 10.412659386975584)
((1, 1, -5, -8, -1, 0, 0, 0), 0, 10.414467430975312)
((1, 1, -5, -8, -1, 0, 0, 0), 0, 10.41527993892221)
((1, 1, -5, -8, -1, 0, 0, 0), 0, 10.416151745694705)
((1, 1, -5, -8, -1, 0, 0, 0), 0, 10.417773910683424)
((1, 1, -5, -8, -1, 0, 0, 0), 0, 10.419198222859812)
((1, 1, -5, -8, -1, 0, 0, 0), 0, 10.420766790833087)
((1, 1, -5, -8, -1, 0, 0, 0), 0, 10.421847854038221)
