((-1, 34, 6, 3, -22, -103, -3, -52), 0, 5.701810153669486e-07)
((-1, 34, 6, 3, -22, -103, -3, -52), 0, 0.00134163592915843)
((-1, 34, 6, 3, -22, -103, -3, -52), 0, 0.0025527004057978287)
((-1, 34, 6, 3, -22, -103, -3, -52), 0, 0.004068811725658545)
((-1, 34, 6, 3, -22, -103, -3, -52), 0, 0.005576940511304124)
((-7, -9, 0, 12, -74, 11, 20, 8), 0, 0.008504249844198038)
((-7, -9, 0, 12, -74, 11, 20, 8), 0, 0.009851587583510136)
((-7, -9, 0, 12, -74, 11, 20, 8), 0, 0.012050775759780457)
((-7, -9, 0, 12, -74, 11, 20, 8), 0, 0.01401048790959666)
((-7, -9, 0, 12, -74, 11, 20, 8), 0, 0.01715161512325318)
((-28, -36, -5, -12, -58, -34, -18, -13), 0, 0.026131395934267252)
((-28, -36, -5, -12, -58, -34, -18, -13), 0, 0.0281817668655268)
((-9, -60, -6, 7, -18, -7, 16, 2), 0, 0.03156179992462207)
((-9, -60, -6, 7, -18, -7, 16, 2), 0, 0.032201543023863785)
((-9, -60, -6, 7, -18, -7, 16, 2), 0, 0.03373304923113941)
((-9, -60, -6, 7, -18, -7, 16, 2), 0, 0.03560039205646617)
((-9, -60, -6, 7, -18, -7, 16, 2), 0, 0.038200987667554816)
((-9, -60, -6, 7, -18, -7, 16, 2), 0, 0.039496438934468525)
((-9, -60, -6, 7, -18, -7, 16, 2), 0, 0.041176762386754925)
((-9, -60, -6, 7, -18, -7, 16, 2), 0, 0.0422105005676152)
((-9, -60, -6, 7, -18, -7, 16, 2), 0, 0.04345121445705368)
((7, 2, -14, -5, 75, -50, 69, 6), 0, 0.04555917367086529)
((7, 2, -14, -5, 75, -50, 69, 6), 0, 0.04695098552937601)
((7, 2, -14, -5, 75, -50, 69, 6), 0, 0.04819398014287596)
((7, 2, -14, -5, 75, -50, 69, 6), 0, 0.04903499714054221)
((7, 2, -14, -5, 75, -50, 69, 6), 0, 0.04989197920663873)
((7, 2, -14, -5, 75, -50, 69, 6), 0, 0.050762645617104064)
((7, 2, -14, -5, 75, -50, 69, 6), 0, 0.05181519977147145)
((7, 2, -14, -5, 75, -50, 69, 6), 0, 0.05274060355941201)
((7, 2, -14, -5, 75, -50, 69, 6), 0, 0.05376978029214935)
((7, 2, -14, -5, 75, -50, 69, 6), 0, 0.055820151223408894)
((7, 2, -14, -5, 75, -50, 69, 6), 0, 0.05753981716575561)
((7, 2, -14, -5, 75, -50, 69, 6), 0, 0.05901031400438697)
((-6, -9, -9, -22, 65, 12, 8, -19), 0, 0.06059883831319929)
((-6, -9, -9, -22, 65, 12, 8, -19), 0, 0.06563182613584334)
((-6, -9, -9, -22, 65, 12, 8, -19), 0, 0.06663705526593527)
((-6, -9, -9, -22, 65, 12, 8, -19), 0, 0.06745526502298685)
((-6, -9, -9, -22, 65, 12, 8, -19), 0, 0.06842457274911067)
((-6, -9, -9, -22, 65, 12, 8, -19), 0, 0.06926444938474617)
((-6, -9, -9, -22, 65, 12, 8, -19), 0, 0.07015678267379545)
((-6, -9, -9, -22, 65, 12, 8, -19), 0, 0.07115060818358004)
((-6, -9, -9, -22, 65, 12, 8, -19), 0, 0.07226873315471463)
((0, 7, -5, -14, -45, -54, -1, -24), 0, 0.07490582035078676)
((-6, -23, 1, 4, -59, -11, 23, -7), 0, 0.07602451550293672)
((-6, -23, 1, 4, -59, -11, 23, -7), 0, 0.07688662919817155)
((-6, -23, 1, 4, -59, -11, 23, -7), 0, 0.07773847963512977)
((-6, -23, 1, 4, -59, -11, 23, -7), 0, 0.07860971622661046)
((-6, -23, 1, 4, -59, -11, 23, -7), 0, 0.07956476942735011)
((-6, -23, 1, 4, -59, -11, 23, -7), 0, 0.08108487201431838)
((-6, -23, 1, 4, -59, -11, 23, -7), 0, 0.08234782296335617)
((-6, -23, 1, 4, -59, -11, 23, -7), 0, 0.08320708575351417)
((-6, -23, 1, 4, -59, -11, 23, -7), 0, 0.08428244714849624)
((-6, -23, 1, 4, -59, -11, 23, -7), 0, 0.08531504496732578)
((-6, -23, 1, 4, -59, -11, 23, -7), 0, 0.08625356291861977)
((-6, -23, 1, 4, -59, -11, 23, -7), 0, 0.08705865851231791)
((-6, -23, 1, 4, -59, -11, 23, -7), 0, 0.08822467868874331)
((-8, 1, -6, -16, 64, -37, -32, -3), 0, 0.0896826315450366)
((11, 17, 15, 27, -1, 78, 19, 16), 0, 0.0917426955535574)
((11, 17, 15, 27, -1, 78, 19, 16), 0, 0.0934469666084892)
((11, 17, 15, 27, -1, 78, 19, 16), 0, 0.09424122876289535)
((11, 17, 15, 27, -1, 78, 19, 16), 0, 0.09521281721308064)
((11, 17, 15, 27, -1, 78, 19, 16), 0, 0.09638111811356752)
((4, -2, 1, 17, 99, 18, 0, -10), 0, 0.09731735534080005)
((4, -2, 1, 17, 99, 18, 0, -10), 0, 0.09806942410006905)
((4, -2, 1, 17, 99, 18, 0, -10), 0, 0.09909346920366809)
((4, -2, 1, 17, 99, 18, 0, -10), 0, 0.10015115498717378)
((4, -2, 1, 17, 99, 18, 0, -10), 0, 0.10096708402016388)
((4, -2, 1, 17, 99, 18, 0, -10), 0, 0.10256815231131428)
((4, -2, 1, 17, 99, 18, 0, -10), 0, 0.10367430348112615)
((4, -2, 1, 17, 99, 18, 0, -10), 0, 0.10478159501296877)
((4, -2, 1, 17, 99, 18, 0, -10), 0, 0.10581476301281367)
((4, -2, 1, 17, 99, 18, 0, -10), 0, 0.1077014919926629)
((4, -2, 1, 17, 99, 18, 0, -10), 0, 0.10896216221763923)
((4, -2, 1, 17, 99, 18, 0, -10), 0, 0.10976554726829127)
((4, -2, 1, 17, 99, 18, 0, -10), 0, 0.1108534526456114)
((-1, -8, -7, -24, -36, -51, -55, -3), 0, 0.11254632008023588)
((-1, -8, -7, -24, -36, -51, -55, -3), 0, 0.11349681183285258)
((-1, -8, -7, -24, -36, -51, -55, -3), 0, 0.11452199729848235)
((-1, -8, -7, -24, -36, -51, -55, -3), 0, 0.11568915783693849)
((-1, -8, -7, -24, -36, -51, -55, -3), 0, 0.11687855543499395)
((-1, -8, -7, -24, -36, -51, -55, -3), 0, 0.11790545144366982)
((-1, -8, -7, -24, -36, -51, -55, -3), 0, 0.11894888270179134)
((-1, -8, -7, -24, -36, -51, -55, -3), 0, 0.11986687413653213)
((-1, -8, -7, -24, -36, -51, -55, -3), 0, 0.12054139827771122)
((-1, -8, -7, -24, -36, -51, -55, -3), 0, 0.12131057246744124)
((-1, -8, -7, -24, -36, -51, -55, -3), 0, 0.12290821967249943)
((-1, -8, -7, -24, -36, -51, -55, -3), 0, 0.12496201168985117)
((-1, -8, -7, -24, -36, -51, -55, -3), 0, 0.12638860459029927)
((-1, -8, -7, -24, -36, -51, -55, -3), 0, 0.12755747567180153)
((-1, -8, -7, -24, -36, -51, -55, -3), 0, 0.12849542344208015)
((-1, -8, -7, -24, -36, -51, -55, -3), 0, 0.1293039401218705)
((-1, -8, -7, -24, -36, -51, -55, -3), 0, 0.1300457456228629)
((-1, -8, -7, -24, -36, -51, -55, -3), 0, 0.13090956986114383)
((-1, -8, -7, -24, -36, -51, -55, -3), 0, 0.13306713482329235)
((-1, -8, -7, -24, -36, -51, -55, -3), 0, 0.1344053496663586)
((-3, -9, -2, -5, 22, -7, 3, -25), 0, 0.1355953174454294)
((-3, -9, -2, -5, 22, -7, 3, -25), 0, 0.13633940367048328)
((-3, -9, -2, -5, 22, -7, 3, -25), 0, 0.13709546369685985)
((-3, -9, -2, -5, 22, -7, 3, -25), 0, 0.13786064661948227)
((-3, -9, -2, -5, 22, -7, 3, -25), 0, 0.13865661931693454)
((-3, -9, -2, -5, 22, -7, 3, -25), 0, 0.13956035622629115)
((-3, -9, -2, -5, 22, -7, 3, -25), 0, 0.1428115283759135)
((-3, -9, -2, -5, 22, -7, 3, -25), 0, 0.14393991660532468)
((-3, -9, -2, -5, 22, -7, 3, -25), 0, 0.144776372154868)
((-3, -9, -2, -5, 22, -7, 3, -25), 0, 0.14560370480816545)
((-3, -9, -2, -5, 22, -7, 3, -25), 0, 0.14635406302438836)
((-3, -9, -2, -5, 22, -7, 3, -25), 0, 0.14712323721411838)
((-3, -9, -2, -5, 22, -7, 3, -25), 0, 0.14840500413666327)
((-6, -8, -3, 1, -20, 34, 7, 30), 0, 0.1499416419730772)
((14, 7, 1, 1, 0, 26, -20, 19), 0, 0.15114016246737852)
((14, 7, 1, 1, 0, 26, -20, 19), 0, 0.15266254577840827)
((14, 7, 1, 1, 0, 26, -20, 19), 0, 0.15356286160167268)
((14, 7, 1, 1, 0, 26, -20, 19), 0, 0.15439019425497014)
((14, 7, 1, 1, 0, 26, -20, 19), 0, 0.1555123104932123)
((4, -2, -2, -4, 9, -15, 13, 58), 0, 0.15682258646652553)
((1, 0, 3, 5, 25, 46, 15, 46), 0, 0.15867339404240663)
((1, 0, 3, 5, 25, 46, 15, 46), 0, 0.15979094883252587)
((1, 0, 3, 5, 25, 46, 15, 46), 0, 0.16126771766232625)
((1, 0, 3, 5, 25, 46, 15, 46), 0, 0.1624850541301347)
((1, 0, 3, 5, 25, 46, 15, 46), 0, 0.1631407622978067)
((1, 0, 3, 5, 25, 46, 15, 46), 0, 0.16676369246944828)
((1, 0, 3, 5, 25, 46, 15, 46), 0, 0.1684502879129037)
((1, 0, 3, 5, 25, 46, 15, 46), 0, 0.169880301899444)
((1, 0, 3, 5, 25, 46, 15, 46), 0, 0.17150987924136277)
((1, 0, 3, 5, 25, 46, 15, 46), 0, 0.172316685378107)
((1, 0, 3, 5, 25, 46, 15, 46), 0, 0.17323866807995533)
((1, 0, 3, 5, 25, 46, 15, 46), 0, 0.17470802455655596)
((1, 0, 3, 5, 25, 46, 15, 46), 0, 0.1759738264106706)
((1, 0, 3, 5, 25, 46, 15, 46), 0, 0.17700585404848476)
((1, 0, 3, 5, 25, 46, 15, 46), 0, 0.1785784132888668)
((19, -11, -8, -10, 2, -13, -19, -95), 0, 0.18041553652037912)
((19, -11, -8, -10, 2, -13, -19, -95), 0, 0.18122576374321556)
((19, -11, -8, -10, 2, -13, -19, -95), 0, 0.18201774517356026)
((19, -11, -8, -10, 2, -13, -19, -95), 0, 0.18283880583568865)
((19, -11, -8, -10, 2, -13, -19, -95), 0, 0.18373570057286087)
((19, -11, -8, -10, 2, -13, -19, -95), 0, 0.18598620504051422)
((19, -11, -8, -10, 2, -13, -19, -95), 0, 0.18718130444872333)
((1, 39, 4, 2, 2, -35, 79, 19), 0, 0.1881135504088483)
((1, 39, 4, 2, 2, -35, 79, 19), 0, 0.18946145832917577)
((1, 39, 4, 2, 2, -35, 79, 19), 0, 0.1910494124569727)
((1, 39, 4, 2, 2, -35, 79, 19), 0, 0.19207174701752566)
((1, 39, 4, 2, 2, -35, 79, 19), 0, 0.19333070669945587)
((-4, -28, -2, 0, 13, -19, -51, -56), 0, 0.19427834754699574)
((6, -9, -3, -2, -14, 16, -17, -9), 0, 0.19511822418263125)
((6, -9, -3, -2, -14, 16, -17, -9), 0, 0.19592046887125256)
((6, -9, -3, -2, -14, 16, -17, -9), 0, 0.1967204328358124)
((6, -9, -3, -2, -14, 16, -17, -9), 0, 0.19863053923729165)
((6, -9, -3, -2, -14, 16, -17, -9), 0, 0.19968309339165904)
((6, -9, -3, -2, -14, 16, -17, -9), 0, 0.20087021026565305)
((6, -9, -3, -2, -14, 16, -17, -9), 0, 0.201898816817375)
((6, -9, -3, -2, -14, 16, -17, -9), 0, 0.20280255372673162)
((6, -9, -3, -2, -14, 16, -17, -9), 0, 0.2036618165168896)
((6, -9, -3, -2, -14, 16, -17, -9), 0, 0.20446976301566458)
((6, -9, -3, -2, -14, 16, -17, -9), 0, 0.20522924412813337)
((6, -9, -3, -2, -14, 16, -17, -9), 0, 0.206077103297984)
((6, -9, -3, -2, -14, 16, -17, -9), 0, 0.20703956885192343)
((-6, 12, 1, -1, -19, 26, 18, -13), 0, 0.208858446290944)
((-8, -28, -4, 0, 8, 5, 40, 14), 0, 0.20996687818481732)
((-8, -28, -4, 0, 8, 5, 40, 14), 0, 0.2111562757828728)
((-8, -28, -4, 0, 8, 5, 40, 14), 0, 0.21226128659065394)
((-8, -28, -4, 0, 8, 5, 40, 14), 0, 0.21307493489958257)
((-8, -28, -4, 0, 8, 5, 40, 14), 0, 0.21383726691712818)
((-8, -28, -4, 0, 8, 5, 40, 14), 0, 0.2146286781664575)
((-8, -28, -4, 0, 8, 5, 40, 14), 0, 0.21595377884617029)
((-5, -12, -1, -3, -4, 13, -5, 25), 0, 0.21706563182613584)
((-5, -12, -1, -3, -4, 13, -5, 25), 0, 0.21860455038661122)
((-5, -12, -1, -3, -4, 13, -5, 25), 0, 0.21976543893389835)
((-5, -12, -1, -3, -4, 13, -5, 25), 0, 0.22096281906616894)
((-5, -12, -1, -3, -4, 13, -5, 25), 0, 0.22209291783862622)
((-5, -12, -1, -3, -4, 13, -5, 25), 0, 0.22416780655354657)
((-5, -12, -1, -3, -4, 13, -5, 25), 0, 0.22529619478295776)
((-5, -12, -1, -3, -4, 13, -5, 25), 0, 0.2263042748181265)
((-5, -12, -1, -3, -4, 13, -5, 25), 0, 0.22764363002322346)
((-5, -12, -1, -3, -4, 13, -5, 25), 0, 0.22861806937848558)
((-5, -12, -1, -3, -4, 13, -5, 25), 0, 0.22984338838050916)
((-5, -12, -1, -3, -4, 13, -5, 25), 0, 0.2308383542523245)
((12, -13, -2, -5, -7, 7, 4, -39), 0, 0.2317956881771256)
((12, -13, -2, -5, -7, 7, 4, -39), 0, 0.23256714309091708)
((12, -13, -2, -5, -7, 7, 4, -39), 0, 0.2333186416691707)
((12, -13, -2, -5, -7, 7, 4, -39), 0, 0.2341813255454209)
((12, -13, -2, -5, -7, 7, 4, -39), 0, 0.2352492745872032)
((12, -13, -2, -5, -7, 7, 4, -39), 0, 0.23707214329333134)
((12, -13, -2, -5, -7, 7, 4, -39), 0, 0.23830373428652393)
((12, -13, -2, -5, -7, 7, 4, -39), 0, 0.23933804264839958)
((12, -13, -2, -5, -7, 7, 4, -39), 0, 0.2405388438667624)
((12, -13, -2, -5, -7, 7, 4, -39), 0, 0.24162446852002106)
((12, -13, -2, -5, -7, 7, 4, -39), 0, 0.2424364062859036)
((12, -13, -2, -5, -7, 7, 4, -39), 0, 0.24335895916876732)
((12, -13, -2, -5, -7, 7, 4, -39), 0, 0.2443630479368285)
((12, -13, -2, -5, -7, 7, 4, -39), 0, 0.24677776453690753)
((12, -13, -2, -5, -7, 7, 4, -39), 0, 0.24774821262506208)
((12, -13, -2, -5, -7, 7, 4, -39), 0, 0.24848032504879325)
((12, -13, -2, -5, -7, 7, 4, -39), 0, 0.2492158585586166)
((12, -13, -2, -5, -7, 7, 4, -39), 0, 0.2500181032472379)
((12, -13, -2, -5, -7, 7, 4, -39), 0, 0.25081236540164403)
((12, -13, -2, -5, -7, 7, 4, -39), 0, 0.25185465629773485)
((12, -13, -2, -5, -7, 7, 4, -39), 0, 0.2537556398029682)
((5, 9, -3, -6, -9, 6, -2, 9), 0, 0.2549826693480379)
((-24, 0, 0, 4, 1, 21, 5, -14), 0, 0.25734721001876465)
((-24, 0, 0, 4, 1, 21, 5, -14), 0, 0.25846647535192996)
((-24, 0, 0, 4, 1, 21, 5, -14), 0, 0.2592892465571045)
((-24, 0, 0, 4, 1, 21, 5, -14), 0, 0.26026140518830515)
((-24, 0, 0, 4, 1, 21, 5, -14), 0, 0.26136755635811704)
((-24, 0, 0, 4, 1, 21, 5, -14), 0, 0.26243151413279175)
((-24, 0, 0, 4, 1, 21, 5, -14), 0, 0.2635177089670658)
((-24, 0, 0, 4, 1, 21, 5, -14), 0, 0.2645674122163563)
((-24, 0, 0, 4, 1, 21, 5, -14), 0, 0.2654563244193134)
((-24, 0, 0, 4, 1, 21, 5, -14), 0, 0.27217134623728995)
((-24, 0, 0, 4, 1, 21, 5, -14), 0, 0.274223997892611)
((-24, 0, 0, 4, 1, 21, 5, -14), 0, 0.27574238993653316)
((10, -10, -1, -3, 20, -39, -73, 20), 0, 0.27691696282818906)
((1, 15, -1, -1, 0, -5, 6, 16), 0, 0.2778092961172383)
((1, 15, -1, -1, 0, -5, 6, 16), 0, 0.2787637791369626)
((1, 15, -1, -1, 0, -5, 6, 16), 0, 0.2797963769557922)
((1, 15, -1, -1, 0, -5, 6, 16), 0, 0.28140485760014233)
((1, 15, -1, -1, 0, -5, 6, 16), 0, 0.2821899968583026)
((1, 15, -1, -1, 0, -5, 6, 16), 0, 0.28339193843869614)
((1, -16, -3, -1, -4, 44, 11, -2), 0, 0.2844570365754016)
((1, -16, -3, -1, -4, 44, 11, -2), 0, 0.2852353336613775)
((1, -16, -3, -1, -4, 44, 11, -2), 0, 0.28617955342282514)
((1, -16, -3, -1, -4, 44, 11, -2), 0, 0.28718649309596317)
((1, -16, -3, -1, -4, 44, 11, -2), 0, 0.28809593181547344)
((1, -16, -3, -1, -4, 44, 11, -2), 0, 0.28909888022150393)
((1, -16, -3, -1, -4, 44, 11, -2), 0, 0.29217728752347005)
((1, -16, -3, -1, -4, 44, 11, -2), 0, 0.2931494461546707)
((1, -16, -3, -1, -4, 44, 11, -2), 0, 0.2939933140574138)
((1, -16, -3, -1, -4, 44, 11, -2), 0, 0.2948075325473578)
((1, -16, -3, -1, -4, 44, 11, -2), 0, 0.2956856113110229)
((1, -16, -3, -1, -4, 44, 11, -2), 0, 0.29660417292677904)
((1, -16, -3, -1, -4, 44, 11, -2), 0, 0.29788137840120105)
((1, -16, -3, -1, -4, 44, 11, -2), 0, 0.29910954830830144)
((-10, -7, 0, 4, 29, -3, 14, -6), 0, 0.30034741129266307)
((-10, -7, 0, 4, 29, -3, 14, -6), 0, 0.30125342892608115)
((-10, -7, 0, 4, 29, -3, 14, -6), 0, 0.30209558628577815)
((-10, -7, 0, 4, 29, -3, 14, -6), 0, 0.3029679632392896)
((-10, -7, 0, 4, 29, -3, 14, -6), 0, 0.3040005610581191)
((-10, -7, 0, 4, 29, -3, 14, -6), 0, 0.3052789068945718)
((-10, -7, 0, 4, 29, -3, 14, -6), 0, 0.3079313889780589)
((1, -37, -5, -7, -50, -24, -18, -11), 0, 0.3096373705760368)
((0, 31, -3, -2, -35, -62, -26, -22), 0, 0.31044702761785786)
((0, 31, -3, -2, -35, -62, -26, -22), 0, 0.311241289772264)
((0, 31, -3, -2, -35, -62, -26, -22), 0, 0.3119973497986406)
((0, 31, -3, -2, -35, -62, -26, -22), 0, 0.3132717043679857)
((5, -10, 3, 5, 4, 5, 5, -14), 0, 0.3145551818335767)
((3, 11, 0, -4, 8, 16, -59, -15), 0, 0.3156299730475434)
((3, 11, 0, -4, 8, 16, -59, -15), 0, 0.316454454795764)
((3, 11, 0, -4, 8, 16, -59, -15), 0, 0.31725441876032384)
((3, 11, 0, -4, 8, 16, -59, -15), 0, 0.31848600975351643)
((3, 11, 0, -4, 8, 16, -59, -15), 0, 0.31944163313527146)
((3, 11, 0, -4, 8, 16, -59, -15), 0, 0.320609363854743)
((3, 11, 0, -4, 8, 16, -59, -15), 0, 0.3218837184240881)
((3, 11, 0, -4, 8, 16, -59, -15), 0, 0.32440505887404075)
((3, 11, 0, -4, 8, 16, -59, -15), 0, 0.3256583167458173)
((3, 11, 0, -4, 8, 16, -59, -15), 0, 0.3274857469000684)
((3, 11, 0, -4, 8, 16, -59, -15), 0, 0.3286911095665541)
((3, 42, -3, -6, -19, 1, -16, -92), 0, 0.3296102413633256)
((-5, -7, -1, -2, 11, 21, 49, 63), 0, 0.3306017861490487)
((-5, -7, -1, -2, 11, 21, 49, 63), 0, 0.33156596224603424)
((-5, -7, -1, -2, 11, 21, 49, 63), 0, 0.3325814546344028)
((-5, -7, -1, -2, 11, 21, 49, 63), 0, 0.3336163331772938)
((-5, -7, -1, -2, 11, 21, 49, 63), 0, 0.3343404630668098)
((-5, -7, -1, -2, 11, 21, 49, 63), 0, 0.33513358485918526)
((-5, -7, -1, -2, 11, 21, 49, 63), 0, 0.33689658455869986)
((-5, -7, -1, -2, 11, 21, 49, 63), 0, 0.3377906283907952)
((-5, -7, -1, -2, 11, 21, 49, 63), 0, 0.3386071276048007)
((-5, -7, -1, -2, 11, 21, 49, 63), 0, 0.33959468112341623)
((-5, -7, -1, -2, 11, 21, 49, 63), 0, 0.3410874150216469)
((-5, -7, -1, -2, 11, 21, 49, 63), 0, 0.3425179991892026)
((-5, -7, -1, -2, 11, 21, 49, 63), 0, 0.3438339769726695)
((-4, -22, -2, 8, -15, -50, -31, -44), 0, 0.34495267212481945)
((-4, -22, -2, 8, -15, -50, -31, -44), 0, 0.34641632679126644)
((-4, -22, -2, 8, -15, -50, -31, -44), 0, 0.3473565552856065)
((-4, -22, -2, 8, -15, -50, -31, -44), 0, 0.3483190208395459)
((-4, -22, -2, 8, -15, -50, -31, -44), 0, 0.34941890001818876)
((-4, -22, -2, 8, -15, -50, -31, -44), 0, 0.3504224186052346)
((-4, -22, -2, 8, -15, -50, -31, -44), 0, 0.35124804071548593)
((-4, -22, -2, 8, -15, -50, -31, -44), 0, 0.35208848753213684)
((-4, -22, -2, 8, -15, -50, -31, -44), 0, 0.3530441109138918)
((-4, -22, -2, 8, -15, -50, -31, -44), 0, 0.3539278914877106)
((-4, -22, -2, 8, -15, -50, -31, -44), 0, 0.35554435466627593)
((-4, -22, -2, 8, -15, -50, -31, -44), 0, 0.35696011412743206)
((-4, -22, -2, 8, -15, -50, -31, -44), 0, 0.35908745949576615)
((0, -2, -2, -4, -4, 12, 20, 46), 0, 0.36043365687304746)
((-3, -4, -3, 0, 24, -3, 13, -15), 0, 0.3615546327492589)
((-3, -4, -3, 0, 24, -3, 13, -15), 0, 0.36246350128775384)
((-3, -4, -3, 0, 24, -3, 13, -15), 0, 0.36322583330529945)
((-3, -4, -3, 0, 24, -3, 13, -15), 0, 0.3643907131196941)
((-3, -4, -3, 0, 24, -3, 13, -15), 0, 0.36608928236447225)
((-3, -4, -3, 0, 24, -3, 13, -15), 0, 0.3672769694194816)
((-3, -4, -3, 0, 24, -3, 13, -15), 0, 0.3685399203685194)
((-3, -4, -3, 0, 24, -3, 13, -15), 0, 0.37010392689367094)
((-3, -4, -3, 0, 24, -3, 13, -15), 0, 0.371845829895617)
((-2, -12, -3, -2, -7, -28, -17, -32), 0, 0.3753387587957549)
((-2, -12, -3, -2, -7, -28, -17, -32), 0, 0.3765840341333163)
((-2, -12, -3, -2, -7, -28, -17, -32), 0, 0.37758698253934675)
((-2, -12, -3, -2, -7, -28, -17, -32), 0, 0.37861901017716093)
((-2, -12, -3, -2, -7, -28, -17, -32), 0, 0.37942467595187446)
((-2, -12, -3, -2, -7, -28, -17, -32), 0, 0.3803740273424604)
((-2, -12, -3, -2, -7, -28, -17, -32), 0, 0.38124640429597184)
((-2, -12, -3, -2, -7, -28, -17, -32), 0, 0.38208628093160735)
((-2, -12, -3, -2, -7, -28, -17, -32), 0, 0.38299514947010227)
((-2, -12, -3, -2, -7, -28, -17, -32), 0, 0.3850164411695781)
((-2, -12, -3, -2, -7, -28, -17, -32), 0, 0.3865120259728856)
((-2, -12, -3, -2, -7, -28, -17, -32), 0, 0.3878337055665062)
((-2, -12, -3, -2, -7, -28, -17, -32), 0, 0.38889424225508873)
((3, 1, 0, 0, -8, 13, -18, 27), 0, 0.3899433753233639)
((-2, 6, 1, -7, 6, 5, 2, -27), 0, 0.39105180721723726)
((-2, 6, 1, -7, 6, 5, 2, -27), 0, 0.39209352793231267)
((-2, 6, 1, -7, 6, 5, 2, -27), 0, 0.3933576192433812)
((-2, 6, 1, -7, 6, 5, 2, -27), 0, 0.39477622960961417)
((-2, 6, 1, -7, 6, 5, 2, -27), 0, 0.39590119675293317)
((-7, -18, -5, -2, 1, 2, -6, 7), 0, 0.39694177710597783)
((-7, -18, -5, -2, 1, 2, -6, 7), 0, 0.39769897749438515)
((-7, -18, -5, -2, 1, 2, -6, 7), 0, 0.398498941458945)
((-7, -18, -5, -2, 1, 2, -6, 7), 0, 0.39941180126454745)
((-7, -18, -5, -2, 1, 2, -6, 7), 0, 0.40029615201938157)
((-7, -18, -5, -2, 1, 2, -6, 7), 0, 0.4013122145887655)
((-7, -18, -5, -2, 1, 2, -6, 7), 0, 0.402372751277348)
((-7, -18, -5, -2, 1, 2, -6, 7), 0, 0.40362771969217065)
((-7, -18, -5, -2, 1, 2, -6, 7), 0, 0.4048074242129649)
((-7, -18, -5, -2, 1, 2, -6, 7), 0, 0.4057043189501371)
((-7, -18, -5, -2, 1, 2, -6, 7), 0, 0.4070795955592022)
((-7, -18, -5, -2, 1, 2, -6, 7), 0, 0.40808653523234023)
((-7, -18, -5, -2, 1, 2, -6, 7), 0, 0.4092713713822727)
((-7, -18, -5, -2, 1, 2, -6, 7), 0, 0.4106705955939832)
((6, -4, 1, -1, -34, -2, -9, -12), 0, 0.4125841230815547)
((6, -4, 1, -1, -34, -2, -9, -12), 0, 0.41336470089159205)
((6, -4, 1, -1, -34, -2, -9, -12), 0, 0.4141709368473209)
((6, -4, 1, -1, -34, -2, -9, -12), 0, 0.41491673361542086)
((6, -4, 1, -1, -34, -2, -9, -12), 0, 0.4157138466749039)
((6, -4, 1, -1, -34, -2, -9, -12), 0, 0.41645451181386556)
((6, -4, 1, -1, -34, -2, -9, -12), 0, 0.4174409249704504)
((6, -4, 1, -1, -34, -2, -9, -12), 0, 0.418695893385273)
((6, -4, 1, -1, -34, -2, -9, -12), 0, 0.4199736690407104)
((6, -4, 1, -1, -34, -2, -9, -12), 0, 0.4216243430801977)
((6, -4, 1, -1, -34, -2, -9, -12), 0, 0.42264211619262765)
((6, -4, 1, -1, -34, -2, -9, -12), 0, 0.42403164732707693)
((6, -4, 1, -1, -34, -2, -9, -12), 0, 0.4253242476889138)
((6, -4, 1, -1, -34, -2, -9, -12), 0, 0.4267930339844991)
((-14, -8, -1, -9, -12, -9, -7, -51), 0, 0.42798357194458525)
((-14, -8, -1, -9, -12, -9, -7, -51), 0, 0.42920147859340907)
((-14, -8, -1, -9, -12, -9, -7, -51), 0, 0.4304803946108771)
((-14, -8, -1, -9, -12, -9, -7, -51), 0, 0.43123360373217684)
((-14, -8, -1, -9, -12, -9, -7, -51), 0, 0.43201646226627566)
((-14, -8, -1, -9, -12, -9, -7, -51), 0, 0.43322638638088434)
((-3, -38, -5, 1, 35, 4, -8, -42), 0, 0.43429604596571275)
((-3, -38, -5, 1, 35, 4, -8, -42), 0, 0.43534118776688036)
((-3, -38, -5, 1, 35, 4, -8, -42), 0, 0.4363281711044805)
((-3, -38, -5, 1, 35, 4, -8, -42), 0, 0.43772055314400665)
((-3, -38, -5, 1, 35, 4, -8, -42), 0, 0.44031772766900307)
((-3, -38, -5, 1, 35, 4, -8, -42), 0, 0.4417950666798188)
((-3, -38, -5, 1, 35, 4, -8, -42), 0, 0.442758672595789)
((-3, -38, -5, 1, 35, 4, -8, -42), 0, 0.4437981125868029)
((-3, -38, -5, 1, 35, 4, -8, -42), 0, 0.44482272787141736)
((-3, -38, -5, 1, 35, 4, -8, -42), 0, 0.4459830462376891)
((-3, -38, -5, 1, 35, 4, -8, -42), 0, 0.44697744192848904)
((-3, -38, -5, 1, 35, 4, -8, -42), 0, 0.44812065486429975)
((2, 7, -2, 5, 1, -12, 8, -6), 0, 0.4494890893011804)
((2, 7, -2, 5, 1, -12, 8, -6), 0, 0.45027080747324855)
((2, 7, -2, 5, 1, -12, 8, -6), 0, 0.4510205955084561)
((2, 7, -2, 5, 1, -12, 8, -6), 0, 0.45201670174230213)
((2, 7, -2, 5, 1, -12, 8, -6), 0, 0.4530356152167629)
((2, 7, -2, 5, 1, -12, 8, -6), 0, 0.45405053742411605)
((2, 7, -2, 5, 1, -12, 8, -6), 0, 0.45513046026722104)
((2, 7, -2, 5, 1, -12, 8, -6), 0, 0.45693622354288815)
((2, 7, -2, 5, 1, -12, 8, -6), 0, 0.4585315900238849)
((2, 7, -2, 5, 1, -12, 8, -6), 0, 0.45936519466835135)
((2, 7, -2, 5, 1, -12, 8, -6), 0, 0.4600511224298378)
((2, 7, -2, 5, 1, -12, 8, -6), 0, 0.46113389617801964)
((2, 7, -2, 5, 1, -12, 8, -6), 0, 0.4622782494758611)
((2, 7, -2, 5, 1, -12, 8, -6), 0, 0.4632789171578301)
((2, 7, -2, 5, 1, -12, 8, -6), 0, 0.46427844447776834)
((2, 7, -2, 5, 1, -12, 8, -6), 0, 0.4651439792590954)
((2, 7, -2, 5, 1, -12, 8, -6), 0, 0.4660209176607297)
((2, 7, -2, 5, 1, -12, 8, -6), 0, 0.4675318973514522)
((2, 7, -2, 5, 1, -12, 8, -6), 0, 0.46830620317032046)
((2, 7, -2, 5, 1, -12, 8, -6), 0, 0.46946937244166903)
((2, 7, -2, 5, 1, -12, 8, -6), 0, 0.4712859691566282)
((2, 7, -2, 5, 1, -12, 8, -6), 0, 0.4734190163351159)
((-1, -13, -4, -5, -23, -23, -39, -25), 0, 0.4750166635401741)
((-1, -13, -4, -5, -23, -23, -39, -25), 0, 0.4767642683522738)
((-1, -13, -4, -5, -23, -23, -39, -25), 0, 0.4780580090761414)
((-19, 4, 3, 0, 5, -5, 18, 40), 0, 0.4794036362724074)
((13, 3, 0, 0, 13, 12, -15, -23), 0, 0.48070707007353625)
((13, 3, 0, 0, 13, 12, -15, -23), 0, 0.4818035281660869)
((13, 3, 0, 0, 13, 12, -15, -23), 0, 0.48262173792313845)
((13, 3, 0, 0, 13, 12, -15, -23), 0, 0.48339832446606823)
((13, 3, 0, 0, 13, 12, -15, -23), 0, 0.4841509634063526)
((13, 3, 0, 0, 13, 12, -15, -23), 0, 0.48503417379915603)
((13, 3, 0, 0, 13, 12, -15, -23), 0, 0.4869060780726057)
((13, 3, 0, 0, 13, 12, -15, -23), 0, 0.4882556965359793)
((13, 3, 0, 0, 13, 12, -15, -23), 0, 0.48949983151150994)
((13, 3, 0, 0, 13, 12, -15, -23), 0, 0.49139112193948215)
((13, 3, 0, 0, 13, 12, -15, -23), 0, 0.4922332792991791)
((13, 3, 0, 0, 13, 12, -15, -23), 0, 0.49349394952415543)
((-3, -8, -2, -3, -19, -16, 12, -39), 0, 0.494481503042771)
((2, 6, 0, -1, 3, 10, 27, 12), 0, 0.49539949447751175)
((2, 6, 0, -1, 3, 10, 27, 12), 0, 0.4970051242167851)
((2, 6, 0, -1, 3, 10, 27, 12), 0, 0.49807535398262887)
((2, 6, 0, -1, 3, 10, 27, 12), 0, 0.4990897060089667)
((2, 6, 0, -1, 3, 10, 27, 12), 0, 0.5000943649580433)
((2, 6, 0, -1, 3, 10, 27, 12), 0, 0.5013008679865597)
((-11, -1, -1, -4, -38, -44, 17, -22), 0, 0.5021464464323488)
((-11, -1, -1, -4, -38, -44, 17, -22), 0, 0.5029338664145706)
((-11, -1, -1, -4, -38, -44, 17, -22), 0, 0.5039772976726922)
((-11, -1, -1, -4, -38, -44, 17, -22), 0, 0.5052066079418233)
((-11, -1, -1, -4, -38, -44, 17, -22), 0, 0.5077307992968527)
((-11, -1, -1, -4, -38, -44, 17, -22), 0, 0.5089743640913681)
((-11, -1, -1, -4, -38, -44, 17, -22), 0, 0.509923715481954)
((-11, -1, -1, -4, -38, -44, 17, -22), 0, 0.5107755659189123)
((-11, -1, -1, -4, -38, -44, 17, -22), 0, 0.5115150906958432)
((-11, -1, -1, -4, -38, -44, 17, -22), 0, 0.512394309821539)
((-11, -1, -1, -4, -38, -44, 17, -22), 0, 0.5133904160553852)
((-11, -1, -1, -4, -38, -44, 17, -22), 0, 0.5145256464569807)
((-6, -9, 1, -2, 9, -2, -31, -68), 0, 0.5168930380327843)
((-8, -1, -3, -1, -32, -5, -6, 16), 0, 0.5180562073041328)
((-8, -1, -3, -1, -32, -5, -6, 16), 0, 0.5192433241781268)
((-8, -1, -3, -1, -32, -5, -6, 16), 0, 0.5204087741735369)
((-8, -1, -3, -1, -32, -5, -6, 16), 0, 0.5265804134838687)
((-8, -1, -3, -1, -32, -5, -6, 16), 0, 0.5278273993644762)
((-8, -1, -3, -1, -32, -5, -6, 16), 0, 0.5286963552318955)
((-8, -1, -3, -1, -32, -5, -6, 16), 0, 0.5296189081147592)
((-8, -1, -3, -1, -32, -5, -6, 16), 0, 0.5310432202911458)
((0, -22, -6, -2, -29, -2, -17, -16), 0, 0.5327332368206935)
((-6, 16, 1, -7, -6, 5, -7, 17), 0, 0.5339842139684086)
((-6, 16, 1, -7, -6, 5, -7, 17), 0, 0.5358042317694599)
((-6, 16, 1, -7, -6, 5, -7, 17), 0, 0.5367877940209679)
((-6, 16, 1, -7, -6, 5, -7, 17), 0, 0.5383894324931336)
((-6, 16, 1, -7, -6, 5, -7, 17), 0, 0.5428699149118871)
((-6, 16, 1, -7, -6, 5, -7, 17), 0, 0.5445331329337124)
((-6, 16, 1, -7, -6, 5, -7, 17), 0, 0.5457379254191829)
((-6, 16, 1, -7, -6, 5, -7, 17), 0, 0.5468144271761957)
((-5, -3, 1, -1, -4, 10, 6, -8), 0, 0.548518128050112)
((-5, -3, 1, -1, -4, 10, 6, -8), 0, 0.5524461050649749)
((-5, -3, 1, -1, -4, 10, 6, -8), 0, 0.5546601179476448)
((-2, -5, -1, -3, 2, -1, -4, -5), 0, 0.5713276493888515)
((-2, -5, -1, -3, 2, -1, -4, -5), 0, 0.5766075255911495)
((-2, -2, -3, -6, -25, -14, -7, 8), 0, 0.5781082420235952)
((5, -2, 1, 2, 15, 6, -5, 7), 0, 0.5802914651314353)
((5, -2, 1, 2, 15, 6, -5, 7), 0, 0.5816245483453633)
((5, -2, 1, 2, 15, 6, -5, 7), 0, 0.5826691199655154)
((5, -2, 1, 2, 15, 6, -5, 7), 0, 0.5842736093427581)
((5, -2, 1, 2, 15, 6, -5, 7), 0, 0.5854173924595841)
((5, -2, 1, 2, 15, 6, -5, 7), 0, 0.5862008211746983)
((5, -2, 1, 2, 15, 6, -5, 7), 0, 0.5869300826933527)
((5, -2, 1, 2, 15, 6, -5, 7), 0, 0.5876564933069301)
((5, -2, 1, 2, 15, 6, -5, 7), 0, 0.5885174666401343)
((5, -2, 1, 2, 15, 6, -5, 7), 0, 0.5921164492091304)
((5, -2, 1, 2, 15, 6, -5, 7), 0, 0.5936508063214829)
((-1, -4, -4, 2, 14, 9, -3, 5), 0, 0.594670289976959)
((-1, -4, -4, 2, 14, 9, -3, 5), 0, 0.5954377536236429)
((-1, -4, -4, 2, 14, 9, -3, 5), 0, 0.5962742091731862)
((-1, -4, -4, 2, 14, 9, -3, 5), 0, 0.5970644800604848)
((-1, -4, -4, 2, 14, 9, -3, 5), 0, 0.5983662033185675)
((-1, -4, -4, 2, 14, 9, -3, 5), 0, 0.5998486739585216)
((-1, -4, -4, 2, 14, 9, -3, 5), 0, 0.6010414926426693)
((-1, -4, -4, 2, 14, 9, -3, 5), 0, 0.6022092233621408)
((-1, -4, -4, 2, 14, 9, -3, 5), 0, 0.6031044075562669)
((-1, -4, -4, 2, 14, 9, -3, 5), 0, 0.603931170028549)
((-1, -4, -4, 2, 14, 9, -3, 5), 0, 0.6047459586995083)
((-1, -4, -4, 2, 14, 9, -3, 5), 0, 0.6053264029731519)
((-1, -4, -4, 2, 14, 9, -3, 5), 0, 0.6070500601826062)
((-1, -4, -4, 2, 14, 9, -3, 5), 0, 0.608917403007933)
((-1, -4, -4, 2, 14, 9, -3, 5), 0, 0.6099722378863618)
((-1, -4, -4, 2, 14, 9, -3, 5), 0, 0.6113720322790877)
((-1, -4, -4, 2, 14, 9, -3, 5), 0, 0.6128248535062426)
((-1, -4, -4, 2, 14, 9, -3, 5), 0, 0.6137462660270756)
((0, 2, 0, 9, 36, -2, 1, -18), 0, 0.6146904857885233)
((0, 2, 0, 9, 36, -2, 1, -18), 0, 0.6154585196162226)
((0, 2, 0, 9, 36, -2, 1, -18), 0, 0.6164745821856065)
((0, 2, 0, 9, 36, -2, 1, -18), 0, 0.6179752986180522)
((0, 2, 0, 9, 36, -2, 1, -18), 0, 0.6192063194302295)
((0, 2, 0, 9, 36, -2, 1, -18), 0, 0.620521727032681)
((0, 0, -5, -22, 0, 4, -6, 10), 0, 0.6215531844894798)
((-1, -2, -1, -4, 22, 10, -1, 2), 0, 0.6227956089219645)
((-1, -2, -1, -4, 22, 10, -1, 2), 0, 0.6243590452661006)
((-1, -2, -1, -4, 22, 10, -1, 2), 0, 0.6252257204094583)
((-1, -2, -1, -4, 22, 10, -1, 2), 0, 0.6263347224843471)
((-1, -2, -1, -4, 22, 10, -1, 2), 0, 0.6290043099982952)
((-1, -2, -1, -4, 22, 10, -1, 2), 0, 0.6300682677729699)
((-1, -2, -1, -4, 22, 10, -1, 2), 0, 0.6309594606999884)
((-1, -2, -1, -4, 22, 10, -1, 2), 0, 0.631788503896332)
((-1, -2, -1, -4, 22, 10, -1, 2), 0, 0.6326044329293221)
((-1, -2, -1, -4, 22, 10, -1, 2), 0, 0.6334933451322792)
((-1, -2, -1, -4, 22, 10, -1, 2), 0, 0.6343942311365589)
((-1, -2, -1, -4, 22, 10, -1, 2), 0, 0.6357894640811619)
((1, 6, 9, 20, -7, 6, 2, 1), 0, 0.6377919398071306)
((1, 6, 9, 20, -7, 6, 2, 1), 0, 0.6385360260321844)
((1, 6, 9, 20, -7, 6, 2, 1), 0, 0.6404187637449261)
((1, 6, 9, 20, -7, 6, 2, 1), 0, 0.6414992567690465)
((1, 6, 9, 20, -7, 6, 2, 1), 0, 0.6427730411573762)
((1, 6, 9, 20, -7, 6, 2, 1), 0, 0.6440000707024459)
((-3, -6, -5, 2, 25, 100, 13, 7), 0, 0.6452521882121918)
((-3, -6, -5, 2, 25, 100, 13, 7), 0, 0.6467534748256529)
((-3, -6, -5, 2, 25, 100, 13, 7), 0, 0.6475437457129515)
((-3, -6, -5, 2, 25, 100, 13, 7), 0, 0.6484554651565232)
((-3, -6, -5, 2, 25, 100, 13, 7), 0, 0.6492297709753916)
((-3, -6, -5, 2, 25, 100, 13, 7), 0, 0.6501203937213947)
((-3, -6, -5, 2, 25, 100, 13, 7), 0, 0.6513753621362174)
((-3, -6, -5, 2, 25, 100, 13, 7), 0, 0.6522785288645586)
((-3, -6, -5, 2, 25, 100, 13, 7), 0, 0.6533305128379107)
((-3, -6, -5, 2, 25, 100, 13, 7), 0, 0.6543231979856645)
((-3, -6, -5, 2, 25, 100, 13, 7), 0, 0.6560069425240431)
((-3, -6, -5, 2, 25, 100, 13, 7), 0, 0.6577676614994963)
((-3, -6, -5, 2, 25, 100, 13, 7), 0, 0.6589861383293354)
((0, -1, 5, 19, 15, -8, -2, 3), 0, 0.6602810194152338)
((-2, 0, -3, -6, -22, -34, -7, -7), 0, 0.6615331369249796)
((-2, 0, -3, -6, -22, -34, -7, -7), 0, 0.6628000791411249)
((-2, 0, -3, -6, -22, -34, -7, -7), 0, 0.6637015353264201)
((-2, 0, -3, -6, -22, -34, -7, -7), 0, 0.6646235180282685)
((-2, 0, -3, -6, -22, -34, -7, -7), 0, 0.6656264664342989)
((-2, 0, -3, -6, -22, -34, -7, -7), 0, 0.6665809494540231)
((-2, 0, -3, -6, -22, -34, -7, -7), 0, 0.6673313076702461)
((-2, 0, -3, -6, -22, -34, -7, -7), 0, 0.6682578518202174)
((-2, 0, -3, -6, -22, -34, -7, -7), 0, 0.6692340017185255)
((-2, 0, -3, -6, -22, -34, -7, -7), 0, 0.6702671697183705)
((-2, 0, -3, -6, -22, -34, -7, -7), 0, 0.6712923551840002)
((-2, 0, -3, -6, -22, -34, -7, -7), 0, 0.6742470332056318)
((-2, 0, -3, -6, -22, -34, -7, -7), 0, 0.6760402524989608)
((2, 5, -3, -9, 22, 27, 0, 3), 0, 0.6774771086576855)
((0, 3, 9, 10, -1, -16, 0, 3), 0, 0.6784794868827007)
((0, 3, 9, 10, -1, -16, 0, 3), 0, 0.6800748533636973)
((0, 3, 9, 10, -1, -16, 0, 3), 0, 0.6817990807541671)
((0, 3, 9, 10, -1, -16, 0, 3), 0, 0.6835985720386651)
((0, 3, 9, 10, -1, -16, 0, 3), 0, 0.6843591935131647)
((0, 3, 9, 10, -1, -16, 0, 3), 0, 0.6850850339457267)
((0, 3, 9, 10, -1, -16, 0, 3), 0, 0.6859055244268398)
((0, 3, 9, 10, -1, -16, 0, 3), 0, 0.6868314983957957)
((0, 3, 9, 10, -1, -16, 0, 3), 0, 0.6881360725589553)
((0, 3, 9, 10, -1, -16, 0, 3), 0, 0.6906283337771242)
((-3, -10, -1, -6, -41, -17, -2, 1), 0, 0.6927151962933673)
((-3, -10, -1, -6, -41, -17, -2, 1), 0, 0.693571037997433)
((-3, -10, -1, -6, -41, -17, -2, 1), 0, 0.6944941610613121)
((-3, -10, -1, -6, -41, -17, -2, 1), 0, 0.6956208387476772)
((-2, -2, -3, 30, 62, 13, -1, -2), 0, 0.6971683100233831)
((2, -6, -11, 0, -6, 2, 1, 3), 0, 0.6981051174316311)
((2, -6, -11, 0, -6, 2, 1, 3), 0, 0.6987374481776729)
((2, -6, -11, 0, -6, 2, 1, 3), 0, 0.6995727633651856)
((2, -6, -11, 0, -6, 2, 1, 3), 0, 0.7003864116741142)
((2, -6, -11, 0, -6, 2, 1, 3), 0, 0.7017251966981958)
((2, -6, -11, 0, -6, 2, 1, 3), 0, 0.7027509523448409)
((2, -6, -11, 0, -6, 2, 1, 3), 0, 0.7038650860488679)
((2, -6, -11, 0, -6, 2, 1, 3), 0, 0.7049176402032353)
((2, -6, -11, 0, -6, 2, 1, 3), 0, 0.70747319151411)
((2, -6, -11, 0, -6, 2, 1, 3), 0, 0.7086420625956122)
((2, -6, -11, 0, -6, 2, 1, 3), 0, 0.7094562810855563)
((2, -6, -11, 0, -6, 2, 1, 3), 0, 0.7107882239374534)
((0, -7, -14, -45, -6, -5, -1, -2), 0, 0.7119439808556022)
((-1, -1, -1, 8, -12, 7, 2, -6), 0, 0.7131259661004579)
((-1, -1, -1, 8, -12, 7, 2, -6), 0, 0.7143826450583267)
((-1, -1, -1, 8, -12, 7, 2, -6), 0, 0.7151307225504882)
((-1, -1, -1, 8, -12, 7, 2, -6), 0, 0.7159802922633849)
((-1, -1, -1, 8, -12, 7, 2, -6), 0, 0.7167449050049919)
((-1, -1, -1, 8, -12, 7, 2, -6), 0, 0.7176754404220708)
((-1, -1, -1, 8, -12, 7, 2, -6), 0, 0.7186584324925634)
((-2, 4, 10, 21, 5, -11, -2, -2), 0, 0.7197908119890821)
((-2, 4, 10, 21, 5, -11, -2, -2), 0, 0.7208011727483125)
((-2, 4, 10, 21, 5, -11, -2, -2), 0, 0.7218337705671419)
((-2, 4, 10, 21, 5, -11, -2, -2), 0, 0.7234074701695548)
((-2, 4, 10, 21, 5, -11, -2, -2), 0, 0.7253033220456498)
((-2, 4, 10, 21, 5, -11, -2, -2), 0, 0.726534342857827)
((-2, 4, 10, 21, 5, -11, -2, -2), 0, 0.7273519824338632)
((-2, 4, 10, 21, 5, -11, -2, -2), 0, 0.7287363819391742)
((-2, 4, 10, 21, 5, -11, -2, -2), 0, 0.7297125318374824)
((-2, 4, 10, 21, 5, -11, -2, -2), 0, 0.7307320154929585)
((-2, 4, 10, 21, 5, -11, -2, -2), 0, 0.7317566307775729)
((-2, 4, 10, 21, 5, -11, -2, -2), 0, 0.7331290564815612)
((-4, -2, -4, -12, 16, -10, -2, -1), 0, 0.7342791115895564)
((-4, -2, -4, -12, 16, -10, -2, -1), 0, 0.7350944704415311)
((-4, -2, -4, -12, 16, -10, -2, -1), 0, 0.7359811019204267)
((-4, -2, -4, -12, 16, -10, -2, -1), 0, 0.7367571182823411)
((-4, -2, -4, -12, 16, -10, -2, -1), 0, 0.7377948477303089)
((-4, -2, -4, -12, 16, -10, -2, -1), 0, 0.7389192446926126)
((-4, -2, -4, -12, 16, -10, -2, -1), 0, 0.7423169533631843)
((-4, -2, -4, -12, 16, -10, -2, -1), 0, 0.7435508250804382)
((-4, -2, -4, -12, 16, -10, -2, -1), 0, 0.7443217098132144)
((-4, -2, -4, -12, 16, -10, -2, -1), 0, 0.7451233843208204)
((-4, -2, -4, -12, 16, -10, -2, -1), 0, 0.747233054077678)
((-4, -2, -4, -12, 16, -10, -2, -1), 0, 0.748793069335722)
((-3, 0, 3, -1, 13, 3, -3, -1), 0, 0.7500771169823284)
((-3, 0, 3, -1, 13, 3, -3, -1), 0, 0.7508554140683042)
((-3, 0, 3, -1, 13, 3, -3, -1), 0, 0.751653667489818)
((-3, 0, 3, -1, 13, 3, -3, -1), 0, 0.7524547718164085)
((-3, 0, 3, -1, 13, 3, -3, -1), 0, 0.7532011387655239)
((-3, 0, 3, -1, 13, 3, -3, -1), 0, 0.7539275493791013)
((-3, 0, 3, -1, 13, 3, -3, -1), 0, 0.7547252326195998)
((-3, 0, 3, -1, 13, 3, -3, -1), 0, 0.7567482348621217)
((-3, 0, 3, -1, 13, 3, -3, -1), 0, 0.7585654017580962)
((-3, 0, 3, -1, 13, 3, -3, -1), 0, 0.7598927831618704)
((-3, 0, 3, -1, 13, 3, -3, -1), 0, 0.7613872276031471)
((-3, 0, 3, -1, 13, 3, -3, -1), 0, 0.7634883446447743)
((-1, -3, 0, -10, -42, -7, 0, 0), 0, 0.7658876663574385)
((-1, -3, 0, -10, -42, -7, 0, 0), 0, 0.7668957463926073)
((-1, -3, 0, -10, -42, -7, 0, 0), 0, 0.7678336941628859)
((-1, -3, 0, -10, -42, -7, 0, 0), 0, 0.7686353686704919)
((-1, -3, 0, -10, -42, -7, 0, 0), 0, 0.769429630824898)
((-1, -3, 0, -10, -42, -7, 0, 0), 0, 0.7701999453766587)
((-1, -3, 0, -10, -42, -7, 0, 0), 0, 0.7712644733323488)
((-1, -3, 0, -10, -42, -7, 0, 0), 0, 0.7725850125639386)
((-1, -3, 0, -10, -42, -7, 0, 0), 0, 0.7768231680511613)
((-1, -3, 0, -10, -42, -7, 0, 0), 0, 0.7781237509472132)
((1, 1, 1, 4, 65, 14, 2, -2), 0, 0.7812677290659465)
((1, 1, 1, 4, 65, 14, 2, -2), 0, 0.7823425202799132)
((1, 1, 1, 4, 65, 14, 2, -2), 0, 0.7833876620810809)
((1, 1, 1, 4, 65, 14, 2, -2), 0, 0.7846363585047345)
((1, 1, 1, 4, 65, 14, 2, -2), 0, 0.7861108466104735)
((-2, -4, -1, -15, 2, -3, -2, 1), 0, 0.787398315343172)
((-3, 1, -6, 15, -36, -8, -2, -2), 0, 0.7883721845174188)
((-3, 1, -6, 15, -36, -8, -2, -2), 0, 0.7960964267325948)
((-3, 1, -6, 15, -36, -8, -2, -2), 0, 0.7976655648868847)
((-3, 1, -6, 15, -36, -8, -2, -2), 0, 0.7987643037034967)
((-3, 1, -6, 15, -36, -8, -2, -2), 0, 0.8006932260784831)
((-3, 1, -6, 15, -36, -8, -2, -2), 0, 0.8028154398176789)
((1, 3, 2, 12, -12, 5, 2, -1), 0, 0.8038035635173099)
((-1, 1, 5, -12, 46, -4, -4, -2), 0, 0.804653703411222)
((-1, 1, 5, -12, 46, -4, -4, -2), 0, 0.8063420093977235)
((-1, 1, 5, -12, 46, -4, -4, -2), 0, 0.8079881219890879)
((-1, 1, 5, -12, 46, -4, -4, -2), 0, 0.8124178582974737)
((-1, 1, 5, -12, 46, -4, -4, -2), 0, 0.8137070375732184)
((-1, 1, 5, -12, 46, -4, -4, -2), 0, 0.8146980121779261)
((-1, 1, 5, -12, 46, -4, -4, -2), 0, 0.8162021496964641)
((1, 0, 1, 7, 4, -6, -2, 0), 0, 0.8174462846719949)
((1, 0, 1, 7, 4, -6, -2, 0), 0, 0.8195650773250984)
((1, 0, 1, 7, 4, -6, -2, 0), 0, 0.8209078536162876)
((1, 0, 1, 7, 4, -6, -2, 0), 0, 0.8220157153291455)
((1, 0, 1, 7, 4, -6, -2, 0), 0, 0.8233613425254115)
((1, 0, 1, 7, 4, -6, -2, 0), 0, 0.8249128050682251)
((1, 0, 1, 7, 4, -6, -2, 0), 0, 0.8270184835579751)
((1, 0, 1, 7, 4, -6, -2, 0), 0, 0.8282067407939999)
((1, 0, 1, 7, 4, -6, -2, 0), 0, 0.8300472851116044)
((1, 0, 1, 7, 4, -6, -2, 0), 0, 0.8310462422505273)
((-2, 0, -3, -9, -6, -1, 0, 0), 0, 0.8319978743651747)
((-1, -2, 3, 0, 9, 5, 0, -1), 0, 0.8328440229919792)
((-1, -2, 3, 0, 9, 5, 0, -1), 0, 0.8337985060117036)
((-1, -2, 3, 0, 9, 5, 0, -1), 0, 0.8348197002102258)
((-1, -2, 3, 0, 9, 5, 0, -1), 0, 0.836102037313786)
((-1, -2, 3, 0, 9, 5, 0, -1), 0, 0.8370211691105576)
((-4, -7, -13, -17, 24, -4, -5, -3), 0, 0.8393406654810702)
((-4, -7, -13, -17, 24, -4, -5, -3), 0, 0.8404086145228525)
((-4, -7, -13, -17, 24, -4, -5, -3), 0, 0.8412273944609195)
((-4, -7, -13, -17, 24, -4, -5, -3), 0, 0.8425051701163568)
((-4, -7, -13, -17, 24, -4, -5, -3), 0, 0.8438103144605318)
((-4, -7, -13, -17, 24, -4, -5, -3), 0, 0.8452203721115342)
((-4, -7, -13, -17, 24, -4, -5, -3), 0, 0.846776966283486)
((-4, -7, -13, -17, 24, -4, -5, -3), 0, 0.8477679408881937)
((-4, -7, -13, -17, 24, -4, -5, -3), 0, 0.8485422467070621)
((-4, -7, -13, -17, 24, -4, -5, -3), 0, 0.8490901906628298)
((-4, -7, -13, -17, 24, -4, -5, -3), 0, 0.84987532992099)
((-4, -7, -13, -17, 24, -4, -5, -3), 0, 0.8507961722608076)
((-4, -7, -13, -17, 24, -4, -5, -3), 0, 0.852046009046492)
((-4, -7, -13, -17, 24, -4, -5, -3), 0, 0.8535552781941683)
((0, -4, -2, -2, -9, -7, -2, -2), 0, 0.854625507960012)
((-2, 1, 5, 2, -4, -5, -1, -1), 0, 0.8558850378229577)
((-2, 1, 5, 2, -4, -5, -1, -1), 0, 0.8577432577520385)
((-2, 1, 5, 2, -4, -5, -1, -1), 0, 0.8586595386437332)
((-2, 1, 5, 2, -4, -5, -1, -1), 0, 0.859513669804753)
((-2, 1, 5, 2, -4, -5, -1, -1), 0, 0.8613838635351565)
((-2, 1, 5, 2, -4, -5, -1, -1), 0, 0.8627574296011755)
((-2, 1, 5, 2, -4, -5, -1, -1), 0, 0.8639103356142475)
((-2, 1, 5, 2, -4, -5, -1, -1), 0, 0.8647661773183133)
((-2, 1, 5, 2, -4, -5, -1, -1), 0, 0.8655541674815503)
((-2, 1, 5, 2, -4, -5, -1, -1), 0, 0.8669704971237219)
((-2, 1, 5, 2, -4, -5, -1, -1), 0, 0.8684273096179844)
((-7, -10, -10, -9, 10, -1, -4, -2), 0, 0.8695539873043495)
((-7, -10, -10, -9, 10, -1, -4, -2), 0, 0.8706396119576082)
((-7, -10, -10, -9, 10, -1, -4, -2), 0, 0.8714983045667508)
((-7, -10, -10, -9, 10, -1, -4, -2), 0, 0.8725827888579788)
((-7, -10, -10, -9, 10, -1, -4, -2), 0, 0.8735315700675493)
((-7, -10, -10, -9, 10, -1, -4, -2), 0, 0.8742944722661103)
((-7, -10, -10, -9, 10, -1, -4, -2), 0, 0.8759434357625515)
((3, -1, 0, -11, -17, -4, -2, -1), 0, 0.8779761310823347)
((3, -1, 0, -11, -17, -4, -2, -1), 0, 0.8791894762830356)
((3, -1, 0, -11, -17, -4, -2, -1), 0, 0.8807705882386482)
((3, -1, 0, -11, -17, -4, -2, -1), 0, 0.8813772608389986)
((3, -1, 0, -11, -17, -4, -2, -1), 0, 0.8824144201059511)
((3, -1, 0, -11, -17, -4, -2, -1), 0, 0.8839179874434737)
((3, -1, 0, -11, -17, -4, -2, -1), 0, 0.8848422508693835)
((3, -1, 0, -11, -17, -4, -2, -1), 0, 0.8858252429398761)
((3, -1, 0, -11, -17, -4, -2, -1), 0, 0.8867894190368616)
((3, -1, 0, -11, -17, -4, -2, -1), 0, 0.8879753955488249)
((3, -1, 0, -11, -17, -4, -2, -1), 0, 0.8891288717429122)
((3, -1, 0, -11, -17, -4, -2, -1), 0, 0.8905685788067138)
((3, -1, 0, -11, -17, -4, -2, -1), 0, 0.8915988959014819)
((3, -1, 0, -11, -17, -4, -2, -1), 0, 0.8950895440775583)
((3, -1, 0, -11, -17, -4, -2, -1), 0, 0.8967653060817218)
((3, -1, 0, -11, -17, -4, -2, -1), 0, 0.8983333038739809)
((3, -1, 0, -11, -17, -4, -2, -1), 0, 0.8997713003947363)
((1, -1, 2, 5, -34, -2, 13, 0), 0, 0.900765125904521)
((1, -1, 2, 5, -34, -2, 13, 0), 0, 0.9014561852951456)
((1, -1, 2, 5, -34, -2, 13, 0), 0, 0.9023177288093651)
((1, -1, 2, 5, -34, -2, 13, 0), 0, 0.9040140173300818)
((1, -1, 2, 5, -34, -2, 13, 0), 0, 0.9066379903628005)
((1, -1, 2, 5, -34, -2, 13, 0), 0, 0.9078302388659327)
((-5, -7, -7, -10, -4, -26, -6, -4), 0, 0.9087277037841204)
((-5, -7, -7, -10, -4, -26, -6, -4), 0, 0.9097580208788885)
((-5, -7, -7, -10, -4, -26, -6, -4), 0, 0.9105910553423395)
((-5, -7, -7, -10, -4, -26, -6, -4), 0, 0.9115193100353569)
((-5, -7, -7, -10, -4, -26, -6, -4), 0, 0.9131642822646906)
((-5, -7, -7, -10, -4, -26, -6, -4), 0, 0.9144403473770818)
((-5, -7, -7, -10, -4, -26, -6, -4), 0, 0.9158218959773159)
((-5, -7, -7, -10, -4, -26, -6, -4), 0, 0.9166304126571062)
((-5, -7, -7, -10, -4, -26, -6, -4), 0, 0.917433227526743)
((-5, -7, -7, -10, -4, -26, -6, -4), 0, 0.9182035420785036)
((-5, -7, -7, -10, -4, -26, -6, -4), 0, 0.9189419264934039)
((-5, -7, -7, -10, -4, -26, -6, -4), 0, 0.9197276359325796)
((-1, 0, 6, 13, -17, 3, 3, -1), 0, 0.9222598098218241)
((-1, 0, 6, 13, -17, 3, 3, -1), 0, 0.9239811863072169)
((-1, 0, 6, 13, -17, 3, 3, -1), 0, 0.9249869856183243)
((-1, 0, 6, 13, -17, 3, 3, -1), 0, 0.9257738354195306)
((-1, 0, 6, 13, -17, 3, 3, -1), 0, 0.9267163446379322)
((-1, 0, 6, 13, -17, 3, 3, -1), 0, 0.9278874964434959)
((-1, 0, 6, 13, -17, 3, 3, -1), 0, 0.929070051869367)
((-1, 0, 6, 13, -17, 3, 3, -1), 0, 0.930036508690414)
((-1, 0, 6, 13, -17, 3, 3, -1), 0, 0.9324495147474469)
((-1, 0, 6, 13, -17, 3, 3, -1), 0, 0.9332711455905907)
((-1, 0, 6, 13, -17, 3, 3, -1), 0, 0.9339952754801066)
((-1, 0, 6, 13, -17, 3, 3, -1), 0, 0.934872213881741)
((-1, 0, 6, 13, -17, 3, 3, -1), 0, 0.9358859957270634)
((-2, 0, -1, 8, 16, 1, -4, 0), 0, 0.937150087038132)
((-2, 0, -1, 8, 16, 1, -4, 0), 0, 0.9380743504640419)
((-2, 0, -1, 8, 16, 1, -4, 0), 0, 0.940181739496838)
((-2, 0, -1, 8, 16, 1, -4, 0), 0, 0.9420707492007487)
((-2, 0, -1, 8, 16, 1, -4, 0), 0, 0.9435560707457796)
((1, -1, -3, -14, -17, 0, -6, -1), 0, 0.9445299399200264)
((1, -1, -3, -14, -17, 0, -6, -1), 0, 0.9454889843878737)
((1, -1, -3, -14, -17, 0, -6, -1), 0, 0.9463585104363083)
((1, -1, -3, -14, -17, 0, -6, -1), 0, 0.9472502735443421)
((1, -1, -3, -14, -17, 0, -6, -1), 0, 0.9521869007753891)
((-2, -3, -2, 6, -12, -15, 1, -1), 0, 0.9534355971990428)
((4, 5, 4, 10, 42, 27, 4, 3), 0, 0.9582285388142173)
((0, -2, 3, 14, -8, -9, -7, -2), 0, 0.9614939654892238)
((-2, -4, -4, 4, 5, 14, 0, -1), 0, 0.9646385137889726)
((-2, 0, -3, -23, -14, -23, -3, 3), 2, 0.9996071452804122)
((-2, -2, -1, 1, 21, 4, 1, -4), 0, 1.0237537411001871)
((-6, -1, -1, 0, 60, 1, -8, -10), 0, 1.056962223797189)
((-4, -5, -4, -16, -17, -32, -10, 16), 0, 1.0796138049946717)
((-8, -4, -2, -6, -2, -22, -43, -22), 1, 1.1096309845486647)
((30, 23, 22, 20, 35, 77, 92, 69), 0, 1.1345370614809083)
((17, -6, -4, 51, -9, -24, 15, -53), 1, 1.1591973903955288)
((88, 41, 16, -39, -9, 65, 33, 70), 1, 1.1831352999636795)
((0, 10, 10, -31, -15, 84, -86, -48), 1, 1.2082597562248087)
((36, 23, 12, -14, -15, 48, 15, 76), 1, 1.2311878752147445)
((-9, -37, -1, -90, 6, 27, 6, -25), 1, 1.2521648347700944)
((5, 8, -2, -9, -5, 6, -21, -11), 1, 1.2766056439937987)
((1, 8, -4, 8, -9, -3, 28, 1), 1, 1.3015482125110258)
((-5, -6, 3, -7, -6, -2, 40, 12), 1, 1.3190875507247286)
((1, 8, -3, 28, 10, -36, -25, -18), 1, 1.3378453657682705)
((-5, -8, -8, -8, -16, 14, -25, -8), 1, 1.3577116127056856)
((-6, 3, 0, 9, 8, -1, -6, -9), 1, 1.376695219431313)
((10, 2, 7, -9, 4, 3, 95, 47), 1, 1.3979299008056087)
((13, 0, 2, 12, 8, 12, -3, 12), 1, 1.4166535049882285)
((3, 11, -6, 6, -4, 3, 10, -9), 1, 1.4330513408091667)
((-4, -3, -2, -2, -12, -14, -9, 0), 1, 1.4533908379893365)
((-9, -5, -4, -7, -5, -9, 20, -20), 1, 1.4763999226834543)
((-8, -7, -8, -3, -2, 12, -14, -20), 1, 1.4947010227336872)
((0, 3, -3, -25, -1, 9, 7, -7), 1, 1.5162840847083723)
((-9, -14, -4, -2, 1, -2, -3, -10), 1, 1.5361885337738173)
((0, 4, 0, -13, 5, 16, 27, 19), 1, 1.5557599971262877)
((-4, -6, -6, -22, -12, -8, -13, -3), 1, 1.5730399029779984)
((-1, -5, 1, -3, -3, -3, -12, 12), 1, 1.5930053614120876)
((2, 6, 6, 11, 2, 2, 26, -6), 1, 1.615216762865707)
((-4, -5, -8, -29, -7, -4, -9, 0), 1, 1.6335885653618454)
((-2, 0, 2, 0, -6, -21, 1, -2), 1, 1.6520145350544437)
((-1, -6, -1, -5, -2, 3, 15, -5), 1, 1.6716800782744499)
((-4, 13, 5, 17, 0, -7, 4, 1), 1, 1.6912133394988906)
((-1, 1, 2, 10, 4, 5, -5, -6), 1, 1.7138683417824656)
((-3, 2, -4, -16, -7, -7, -2, 0), 1, 1.732634709541238)
((-4, -10, -3, -3, -4, 2, -4, -16), 1, 1.752512930279976)
((-2, 2, -3, -30, -3, -7, -15, -8), 1, 1.7731951062503812)
((2, 4, 2, 18, 3, 0, -4, 6), 1, 1.796393491041601)
((-6, -2, -3, 0, -8, -21, 1, -8), 1, 1.8240729284325894)
((2, 3, 2, 4, 4, 10, 31, 0), 1, 1.8444147063368208)
((-5, -5, -1, 3, -6, -10, -23, 0), 1, 1.8641885839497465)
((5, 1, 2, 0, -1, 4, -13, -3), 1, 1.8846883019952345)
((-7, -8, -7, -24, -9, -16, -28, -9), 1, 1.9113938702119762)
((-4, -2, 0, -6, -1, 4, 27, 4), 1, 1.9307691912951606)
((-1, 2, 1, -5, 3, 4, -26, 16), 1, 1.950606359000792)
((-7, 2, 3, 13, 1, 19, 1, 2), 1, 1.96953693889199)
((1, -1, -2, -9, 7, 10, -6, 5), 1, 1.9906809614848426)
((4, -6, 0, 15, 10, 33, 28, -9), 1, 2.0125856055521947)
((-6, -5, -6, -6, -3, 2, -24, -10), 1, 2.0322819385470305)
((-1, -2, 1, -10, -5, 4, -10, -1), 1, 2.0550407137754023)
((-1, 0, -1, 4, -1, 1, 15, -13), 1, 2.0735493597152286)
((-1, 1, 3, 5, 5, -2, -5, 1), 1, 2.0926088005158996)
((0, -3, -2, -4, -2, 2, -17, 18), 1, 2.1164931130686058)
((1, 4, 2, 5, -3, -11, -9, -1), 1, 2.134991495750156)
((-1, 0, -1, -8, -3, -11, -11, -6), 1, 2.1550498936897498)
((1, 3, 4, -1, 4, 4, 47, 2), 1, 2.173368669351459)
((-1, -1, -1, 10, -1, -9, -16, -6), 1, 2.192192055211768)
((0, -1, 3, 12, 4, 20, 1, -5), 1, 2.2176152863249494)
((-2, 2, 2, 12, 2, -3, 6, -3), 1, 2.2378527211033687)
((-1, -2, -1, -9, 0, 6, 18, -4), 1, 2.256750800676691)
((0, -4, -5, -5, -8, -19, -20, -6), 1, 2.2757994080380697)
((0, -2, -1, -9, -3, 0, -12, -1), 1, 2.295366880123433)
((-3, 0, 4, -4, -2, 9, -6, -11), 1, 2.316300505921615)
((0, -3, -3, 6, -8, -3, 33, -1), 1, 2.3357043360555676)
((1, 0, 4, 13, 0, -7, -16, 3), 1, 2.3572543275313613)
((-1, -1, -5, -12, -9, -18, -6, 1), 1, 2.3774854903186116)
((0, -12, -4, -1, -7, -1, -10, -6), 1, 2.3967376523024764)
((1, 5, 2, 20, 1, 6, 4, 1), 1, 2.4211174521575365)
((0, 4, 1, -6, -1, -7, -19, -4), 1, 2.4414740547681673)
((1, 1, -1, 7, -2, 4, 3, 4), 1, 2.4626465864117884)
((0, -3, 0, 1, -3, -3, 14, -2), 1, 2.481849142647316)
((0, -2, -4, -4, -2, -9, 4, 0), 1, 2.5010226196510605)
((4, 3, 0, 0, 7, -8, 1, -2), 1, 2.5237734123452173)
((-2, -4, -6, -9, -9, -14, -3, 1), 1, 2.544697345066138)
((-4, -7, -4, -1, -1, 3, 0, 2), 1, 2.563534415270816)
((3, 1, 6, 18, 79, 7, 9, 4), 1, 2.5834057938373696)
((-4, -12, -5, -3, -29, -8, -1, 6), 1, 2.6044403416752715)
((0, 11, 1, 0, -9, 0, 1, -5), 1, 2.6277122798174735)
((-1, 1, -1, -9, -15, 3, -5, -2), 1, 2.647504403222891)
((-2, 2, -3, -6, -36, -10, -6, -2), 1, 2.6669498565709655)
((0, -6, -6, -21, -50, 7, 18, -6), 1, 2.689970915066406)
((-4, -9, -3, -8, 10, -8, -19, -13), 1, 2.710135366674858)
((1, -5, 0, 4, 13, -1, -4, -2), 1, 2.7313078983184793)
((-4, 4, -1, 0, 7, 0, -2, 3), 1, 2.750056590465775)
((0, 9, 4, 10, 57, -4, 0, 4), 1, 2.7705614401404013)
((-4, 1, -2, -2, 35, -1, -1, 0), 1, 2.7962686213992356)
((-1, 4, 1, -1, -25, 4, -2, 2), 1, 2.82127676073323)
((-3, 0, -3, 3, -3, 5, -1, 1), 1, 2.8426790753260436)
((0, 1, 2, 0, -5, -9, -4, -1), 1, 2.860673988171025)
((0, -4, -3, 2, -9, 4, -4, -5), 1, 2.8803001889009705)
((-2, 0, -1, -10, -10, -10, -1, 0), 1, 2.8989821698694684)
((-3, -1, -3, -11, 14, -2, -5, -3), 1, 2.917726870749657)
((-2, 6, 2, -1, 21, 4, 0, 3), 1, 2.939760375726482)
((-2, 3, 4, -3, -2, -13, -2, -1), 1, 2.958399022937812)
((-2, -3, -6, -15, -101, -6, -5, -3), 1, 2.977099249698802)
((3, 7, 9, 30, 49, 7, 7, 7), 0, 2.9960851371484907)
((-3, 0, -7, -4, 16, 0, -1, -6), 1, 3.0150385242803033)
((2, 2, 4, 7, -8, 0, 1, 0), 1, 3.040937286360301)
((-1, 5, 0, -3, 9, -1, -4, -2), 1, 3.0604716879467726)
((-3, -3, -4, -18, -39, -11, -7, -3), 0, 3.0787186208005455)
((-1, 0, 1, 3, -14, -8, -1, 0), 1, 3.099742905380171)
((0, -2, -1, 5, 26, 11, 2, 1), 1, 3.122384223319377)
((-1, -1, -1, 1, 26, -2, 3, 2), 1, 3.1445865018767507)
((-4, -4, -2, -3, -15, -5, -8, -6), 1, 3.16407072753387)
((-3, -5, -3, -1, -9, 9, -3, -2), 0, 3.1833314422329657)
((-1, 0, 0, 0, -12, 5, 0, -2), 0, 3.2033647522078836)
((-1, 0, -1, -4, -30, 9, -3, 0), 0, 3.223108410226995)
((-3, 2, 3, 2, 28, 4, -1, -1), 0, 3.2458050357246915)
((1, -2, -2, 4, 20, -14, 0, -2), 0, 3.2643427608963016)
((-1, 2, 2, 9, 14, -4, 3, 1), 0, 3.2838133022090523)
((0, 0, 2, 1, -2, 7, 1, -1), 0, 3.3030038846432577)
((0, 0, 3, 24, -24, -5, -1, -1), 0, 3.3215558643402523)
((-1, -1, -2, -4, -2, -2, 0, -1), 0, 3.3438944161602984)
((-3, -6, -3, 4, -47, 34, -2, -3), 0, 3.3630268401309364)
((-1, -2, -2, -8, 4, -2, -1, -1), 0, 3.382379353973506)
((-4, -2, 0, 2, 7, 3, 30, 2), 0, 3.400881157741148)
((-3, -2, -3, -15, -13, 3, -6, -2), 0, 3.422032022506185)
((-1, -3, -7, -15, -19, 12, 5, 0), 0, 3.442213009364083)
((2, 0, 2, 12, 30, -32, -18, -2), 0, 3.4606349877895735)
((-4, 15, 8, 13, 54, 25, 14, -37), 0, 3.480411716307576)
((35, 29, 5, 11, 78, 52, -4, 2), 0, 3.4983946553512344)
((-10, 4, -1, 25, 19, -48, -2, 45), 0, 3.5174387012644903)
((-19, -39, -25, -53, -128, -46, -29, 27), 0, 3.5396666379675557)
((18, -44, -12, 3, 73, 18, 23, -3), 0, 3.559465033364142)
((6, 24, 5, 18, 112, 1, 9, 22), 0, 3.579336411930696)
((-13, -3, 3, -2, -55, 1, -6, -16), 2, 3.5990310343824854)
((-9, 13, 9, -19, -36, -3, -50, -23), 2, 3.619511936454466)
((0, 18, 10, 18, -12, 18, 16, 5), 2, 3.6360346419177696)
((4, 6, 4, 3, 40, -15, 15, 1), 2, 3.659227895079851)
((1, -5, -3, -7, -30, 24, 1, -15), 2, 3.678442425116702)
((3, -8, -5, -9, -26, -12, -10, -14), 2, 3.6974938833831574)
((-3, -3, -2, -2, -22, -10, 12, 1), 2, 3.715492787495246)
((2, 4, -1, -1, 50, -1, 30, 19), 2, 3.736523914247056)
((1, 1, 0, -4, -6, 2, 3, 21), 2, 3.7587125084600608)
((-5, -3, -2, -8, -35, 2, 4, -6), 2, 3.777428700289481)
((-5, 2, 1, 7, -23, 7, -15, -11), 2, 3.803861151799862)
((3, -1, 1, 7, 7, 10, 4, 9), 2, 3.8275630064276505)
((-3, 3, 0, 16, 74, -3, -6, 1), 2, 3.8469816612680026)
((1, -5, -5, -12, -44, -3, -2, 11), 2, 3.8701726337060225)
((-1, 2, 1, 3, -33, 2, 7, 8), 2, 3.8904380073541946)
((-3, -1, 2, 3, -41, 0, -1, -21), 2, 3.9093577538061006)
((-1, 1, 1, 0, -1, -4, 2, -1), 2, 3.9290136039488455)
((-2, -2, -1, -7, 29, 2, -2, 1), 2, 3.9522667261175406)
((-2, -3, -3, -4, 5, -1, -3, 5), 2, 3.9749616410721913)
((-2, 0, -1, 0, -9, 4, -1, 3), 2, 3.995114689060336)
((0, -8, -7, -6, -23, -6, -6, -5), 2, 4.0140093475475656)
((0, 0, -1, -6, 3, -13, -4, -6), 2, 4.038370331429118)
((-2, 1, 0, -4, -1, -9, -4, -19), 2, 4.061687313871535)
((-2, 1, 1, -6, -10, 3, -2, -9), 2, 4.080758728473528)
((-1, -1, 1, 7, -5, 7, 5, 5), 2, 4.101293227560954)
((-5, -3, -5, 0, 62, 2, -3, -1), 2, 4.12070275950506)
((1, 1, 1, -2, 51, -3, -1, 4), 2, 4.140596945312228)
((-2, 1, 0, 4, 8, 13, 3, 3), 2, 4.16355015226684)
((-3, -2, -1, 3, 0, 0, 2, 17), 2, 4.181559319637206)
((-1, -3, -3, 2, -16, -2, -3, -5), 2, 4.201972940349373)
((-4, -1, -3, -9, -2, -4, -5, -5), 2, 4.220559130907289)
((-2, -2, -1, 1, -14, 4, -1, 7), 2, 4.2394634824717805)
((-2, -1, -1, 0, 12, -4, -3, -6), 2, 4.255762106796045)
((1, -1, 1, 4, 6, 6, 0, 3), 2, 4.277009902333694)
((-4, -1, -4, -7, -8, -9, -5, -18), 2, 4.294590293580503)
((-1, -4, -4, -14, -30, -10, 2, -5), 2, 4.315010756464855)
((-1, 0, 0, 4, 27, 7, 0, 3), 2, 4.33796225287642)
((2, 2, 5, 13, -47, 7, 2, 2), 2, 4.359323514436128)
((-3, -3, -2, -7, 9, -4, -4, 2), 2, 4.381615311412914)
((-1, -1, 0, 24, 70, -12, -4, -1), 2, 4.402509594721036)
((3, -2, -2, 3, 16, -9, -5, -4), 2, 4.423519054594262)
((-4, 0, -1, 0, -9, -3, 4, -1), 2, 4.443900174988554)
((-1, -2, -2, -6, 1, -7, -2, -5), 2, 4.467738302879015)
((0, -3, -1, -9, -16, -6, 3, -5), 2, 4.491559325339016)
((0, -1, 0, -7, -45, 2, 0, -6), 2, 4.511317808064526)
((-4, -3, -6, -5, -19, -4, -3, -4), 2, 4.531050632644345)
((-4, 0, 1, 2, 3, -2, -2, -1), 2, 4.551143241444861)
((-2, -2, -1, 0, 24, -2, -2, 0), 2, 4.570492904382355)
((-1, -2, -4, -2, -11, 5, -1, -3), 2, 4.5928411492796615)
((0, -3, 4, 7, -21, 9, 2, 2), 2, 4.613281568499551)
((-2, 1, -2, -3, 46, -1, -3, -2), 2, 4.633691197944612)
((-1, -1, -1, -2, 0, 0, 6, 25), 2, 4.65347704935886)
((-3, -1, 0, -1, -36, -9, -6, -9), 2, 4.67782605943909)
((0, 1, 1, -1, 24, -2, -5, -2), 2, 4.696403697281776)
((-1, -1, 2, 5, -4, 0, 2, 5), 2, 4.718820363900927)
((1, -2, -1, -4, 2, 2, 0, -3), 2, 4.738910691977382)
((-1, 2, -2, 2, -10, 2, -2, -5), 2, 4.75857224393028)
((-1, -5, -5, -10, -4, -3, -2, -6), 2, 4.781662294328581)
((1, 0, 1, 2, -18, 2, 2, 1), 2, 4.811194820019511)
((2, 0, 1, -1, -22, 3, 1, 0), 2, 4.830460666347745)
((2, 0, 1, -1, -22, 3, 1, 0), 2, 4.851323019519007)
((-1, 1, -1, 2, -6, 0, 1, -1), 2, 4.871206942067898)
((0, -1, 0, -1, 4, 0, -2, -2), 2, 4.892136576598973)
((1, -1, -1, 1, 20, 0, 0, 1), 2, 4.910461624251851)
((-2, -1, -2, -5, 5, -6, -4, 0), 2, 4.929019875940015)
((-2, -1, -3, 2, -11, 0, -4, -6), 2, 4.948165984255022)
((0, -2, -1, -5, -1, -5, -1, -2), 2, 4.967033274053514)
((0, 0, -1, 3, -7, -5, 5, 1), 2, 4.988278788867102)
((1, -1, -1, 1, 5, 3, 0, 0), 2, 5.006267999901929)
((-1, -1, -2, 0, 12, 5, -2, 1), 2, 5.026114860684822)
((-2, -2, -4, -9, 13, -5, -4, 0), 2, 5.047708756098799)
((0, -1, 1, 0, -11, -1, 2, -1), 2, 5.067262543839793)
((-6, -1, 0, -2, 4, 9, -3, -4), 2, 5.088313056746125)
((-2, -2, -1, 1, 15, 0, 0, -1), 2, 5.108571588222113)
((1, 1, 1, 12, -17, 0, 3, 0), 2, 5.12744572019279)
((1, 0, 1, 2, 13, 4, -1, 0), 2, 5.147387231024234)
((-1, 0, -2, -9, -5, 1, -3, -5), 2, 5.169580956866376)
((-2, -2, -2, -6, -22, -11, -4, -4), 2, 5.191080772412818)
((-2, 0, -1, 1, -4, -1, -3, 1), 2, 5.209731963606486)
((0, 0, -2, 3, 24, 0, 1, 2), 2, 5.229423164972184)
((-3, -1, 1, -2, -24, -6, 2, -1), 2, 5.251192676138894)
((-2, -2, -1, 2, 1, 1, -3, -1), 2, 5.270934053433944)
((-2, -3, -5, -5, -18, 0, -1, -1), 2, 5.293370106207618)
((-1, -2, 1, -3, -1, 6, -7, -2), 2, 5.312129061613191)
((-1, -1, -2, -1, -1, -1, 0, -2), 2, 5.332202284259184)
((-3, -1, -1, -2, -12, -3, -3, -1), 2, 5.350667596441842)
((-2, -1, -1, 4, -7, -6, -1, -3), 2, 5.370564062973072)
((-2, -1, -1, 4, -7, -6, -1, -3), 2, 5.387562869584207)
((-1, -3, -7, -4, 20, 6, 1, 0), 2, 5.40973321800472)
((-1, 2, 3, 3, 12, 4, -1, -3), 2, 5.429019020668492)
((-2, -5, -8, -12, -14, -3, 1, -1), 2, 5.447784248065234)
((-1, -1, 0, -3, -1, 0, 1, -1), 2, 5.467465186172654)
((-2, -1, 0, 8, 20, -3, -1, -1), 2, 5.48757261967957)
((0, -1, 2, 9, 42, 8, 3, 0), 2, 5.509961917609983)
((-2, -2, 1, 17, -3, 2, 5, 1), 2, 5.528922717094996)
((-1, -3, -7, -13, -22, -7, -8, -1), 2, 5.5499606860189905)
((-1, -1, -1, 0, -2, -9, 0, -1), 2, 5.570442728453002)
((1, 1, 4, 4, -1, 0, -1, 0), 2, 5.595889336987813)
((1, 2, -1, -11, -14, -5, -4, -3), 2, 5.615737338132737)
((-1, -2, -5, -11, 3, 0, 7, 0), 2, 5.635878982500574)
((0, 1, 3, 15, -7, 3, -1, 1), 2, 5.656987653870474)
((-2, -2, -3, -4, 11, 1, 0, -3), 2, 5.674955198026717)
((-4, -6, -6, -3, 26, -2, -3, 0), 2, 5.699251181272518)
((-2, 0, -1, 6, -16, 6, -4, -3), 2, 5.719005672730922)
((0, 0, 1, -14, -10, -2, -3, -1), 2, 5.73960631281613)
((-2, -1, -2, 2, -24, -3, -3, -2), 2, 5.759096810464418)
((0, -3, -5, -6, 0, -7, -1, -2), 2, 5.777881994196697)
((-1, -2, 1, 17, 2, 7, 3, -2), 0, 5.8017098588288825)
((-1, 0, 0, -1, -17, -7, -1, -1), 3, 5.8231703318852635)
((-1, 0, 0, -8, -9, -3, 0, -2), 3, 5.843176273171443)
((-1, -3, -4, -9, 0, -5, -4, -2), 3, 5.862677604259024)
((2, 1, 2, 27, -1, -3, 1, 0), 3, 5.8827114844149575)
((-2, -2, -4, -12, 1, -10, 0, 1), 3, 5.903584100844495)
((-1, -1, 0, 1, 15, -2, -5, -4), 3, 5.923430961627388)
((-1, -1, -1, 5, 11, -1, -6, -1), 3, 5.942932292714969)
((3, 0, -4, 19, 7, 7, -1, 11), 3, 5.962608669374267)
((-4, -4, -4, 11, -1, -5, -6, 1), 3, 5.985106871878616)
((-12, -1, 4, 20, 63, 13, -31, -6), 0, 6.006104357950519)
((-3, 0, 0, 3, 15, 20, 4, 1), 0, 6.02503322729867)
((13, 1, -5, -6, 6, -8, -2, 3), 0, 6.045734789423598)
((0, -30, -4, -3, 4, 32, 5, -1), 0, 6.0665509579326145)
((5, 24, 0, 6, -24, -5, -10, -74), 0, 6.085483248366859)
((-9, 6, -1, -13, -35, 4, 11, 90), 0, 6.107780176972784)
((-7, -4, -3, 3, -20, -9, 1, 4), 0, 6.125178680475691)
((47, 7, 4, 5, 33, 44, 14, -64), 0, 6.14437496472005)
((5, -15, -10, -12, 8, -50, -8, 107), 0, 6.162181717829959)
((8, 12, 3, 2, -46, 9, 9, 53), 0, 6.18143444999484)
((34, 8, -3, -8, -51, -5, -13, -29), 3, 6.19992542032319)
((-35, 15, -11, -11, -9, -67, -58, -38), 3, 6.221677826059439)
((-17, -14, 3, 9, -5, 0, 1, 12), 3, 6.24076064428174)
((8, -4, -4, -37, 25, -18, -29, -35), 3, 6.260678207510538)
((-2, -6, -5, -14, 6, -4, 12, -14), 3, 6.279798657679853)
((9, -4, 0, 3, -8, -10, -4, 21), 3, 6.299290295690173)
((-15, -34, 0, 7, -8, 9, 13, 1), 0, 6.319909751748888)
((-9, -2, -2, 5, 12, 1, -3, 9), 3, 6.3391784489821985)
((-68, -2, -3, 2, 3, -6, 0, -14), 3, 6.358683201155871)
((-3, 9, 1, 7, 9, 6, 5, 0), 3, 6.378869889823922)
((-9, 1, 1, 7, -22, -3, 6, 15), 3, 6.402097924027941)
((-11, 10, 2, 1, 0, -1, -3, -15), 0, 6.423390763865805)
((24, -5, -4, 1, -6, 6, 2, -42), 0, 6.443051745637687)
((11, 1, -3, -10, -3, -3, -3, 3), 0, 6.465789424168491)
((-3, 0, -3, -7, 2, -9, -8, -7), 0, 6.4866107243066455)
((-2, -4, -3, -1, -16, -2, -1, -1), 0, 6.507267812312374)
((-5, -4, -1, 0, -18, -1, -1, -9), 0, 6.529151359682158)
((-8, 1, -2, 0, 4, 4, 5, 7), 0, 6.549631121392109)
((-1, -2, -3, -2, 5, 2, 2, 2), 0, 6.569530438828415)
((-1, -7, -1, 4, -1, 4, 3, 0), 0, 6.58912356905947)
((4, 1, -1, 2, 19, 3, 0, 3), 0, 6.610516760756037)
((0, -2, -2, -4, 14, -5, -2, -1), 0, 6.630909284770636)
((-61, -4, -2, -10, -47, -10, -5, -55), 0, 6.649681354339562)
((1, -2, 0, -1, 14, -4, -5, 2), 0, 6.669111982981237)
((1, -2, 0, -1, 14, -4, -5, 2), 0, 6.6876508485148785)
((14, 1, -1, -3, 3, -1, -3, 3), 0, 6.70713108290489)
((-1, -2, -1, -5, -17, -6, -2, -3), 0, 6.727869136614801)
((-1, -2, -1, -5, -17, -6, -2, -3), 0, 6.745127375587928)
((-1, 1, 1, -3, -13, 8, 1, -2), 0, 6.765944684458975)
((-5, -5, -1, -7, -20, -2, -4, -4), 0, 6.784690525701194)
((7, 0, -2, 7, 47, 4, 0, -5), 0, 6.8076328992165145)
((-1, -2, -1, 3, -6, -5, 1, -3), 0, 6.834238115574552)
((-2, -2, -1, 1, -10, 1, -3, -12), 0, 6.852917815818988)
((2, -1, -2, 0, 1, 0, -1, 10), 0, 6.872713360310498)
((-6, 0, -2, -2, -7, -11, 1, -14), 0, 6.89163481730545)
((-2, -4, -4, -5, 7, -5, -5, 5), 0, 6.911030094724172)
((-3, -1, 0, -1, 3, 3, 1, 6), 0, 6.932173547136009)
((-3, -1, 0, 7, -18, -3, 2, 2), 0, 6.951544306771071)
((-2, -1, -3, -6, -3, -5, -2, -1), 0, 6.970545018927159)
((0, -4, 0, 0, -15, -7, -2, -1), 0, 6.98991577856222)
((-2, -1, 0, 0, -2, 6, -4, -4), 0, 7.008793901800004)
((2, -3, 0, -3, 8, -2, 0, 1), 0, 7.0308981092227345)
((-3, -2, -1, 4, 13, 15, -2, -7), 0, 7.051432608310161)
((3, -1, -3, -10, 2, -4, -1, -1), 0, 7.070742928757593)
((-3, 0, 2, 5, 12, -1, 0, -3), 0, 7.08908907310804)
((-1, -1, -1, -2, 3, -7, -4, -10), 0, 7.109489579656854)
((5, 0, -1, 1, 0, 5, 0, -7), 0, 7.130772726417455)
((-12, -3, -3, -6, 5, -7, -3, -5), 0, 7.150361865381402)
((1, -2, 2, 2, -16, -4, 2, -2), 0, 7.170016004981101)
((5, 2, 0, 11, -4, 4, 0, -2), 0, 7.189344571221025)
((-2, -1, -1, -6, -16, -1, 0, 0), 0, 7.210878027447373)
((-2, -2, -4, -9, 4, -1, -1, -3), 0, 7.237938248255674)
((2, -1, 0, 4, -8, -7, -4, -2), 0, 7.257228042186553)
((0, -1, -3, -4, 22, -2, -2, -4), 0, 7.277800173220992)
((0, -2, 2, 7, 2, -5, -3, -3), 0, 7.299225865235436)
((0, -1, -5, -10, -5, -5, -3, -1), 0, 7.32010760456122)
((0, -1, 3, 7, 1, 5, 3, 0), 0, 7.341964923604297)
((-2, -3, -4, -3, -7, -1, 1, -2), 0, 7.3599632575353695)
((2, -1, -4, -19, -9, -1, 0, -1), 0, 7.37985345207543)
((0, -4, -8, -21, 5, 7, 0, -1), 0, 7.39717156005517)
((-1, 4, 8, 17, 2, -3, -2, -1), 0, 7.416140912255414)
((-1, -3, -6, 6, -2, -1, -2, -1), 0, 7.436853307819634)
((-3, -3, 5, -11, 0, -3, -3, 0), 0, 7.457266928531801)
((-1, 1, 2, 12, 2, 3, 1, 1), 3, 7.476582950789387)
((-1, 0, 1, 31, -3, -2, -2, 0), 3, 7.49586248146199)
((0, 0, -2, 11, -6, 3, -1, -2), 0, 7.514956133123583)
((-2, -1, 1, 29, 5, -4, -2, -1), 0, 7.534342287646059)
((-2, -2, -3, -3, -2, -10, -4, -2), 0, 7.556099825011446)
((2, 4, 7, 18, 1, -4, -2, -1), 0, 7.575127335675257)
((-2, -4, -6, -12, -3, -1, -2, -4), 0, 7.5947204659063114)
((-1, -2, -2, -11, -6, -13, -3, -1), 0, 7.616278439916321)
((-2, -3, -4, -1, -4, -2, -3, 1), 0, 7.637568428849106)
((0, 1, 1, 0, 8, -2, 0, 0), 0, 7.657769942223558)
((0, 0, 7, 13, 4, 5, 1, -1), 0, 7.6767615314834)
((-1, -5, -7, 25, -1, 3, 1, -1), 0, 7.697200240160243)
((-1, 4, 4, 12, 26, 26, 1, 3), 0, 7.718628783079764)
((-2, -1, -3, -18, -8, -3, -6, -12), 0, 7.734679948843359)
((-3, -4, -8, -12, 6, 5, 2, 1), 0, 7.75683091110935)
((2, 0, 1, -19, -2, -6, -2, 3), 0, 7.775873816660575)
((-2, -2, -8, -19, -6, -14, -3, -1), 0, 7.8002028704052675)
((-1, -3, -4, -10, 1, -4, -1, -3), 0, 7.819652885201465)
((-3, -5, -9, -48, -5, -6, -5, -2), 0, 7.839462114037343)
((1, 0, 1, 8, 4, 12, 1, 1), 0, 7.859266211244083)
((2, 0, -1, -2, -3, -3, 0, 2), 0, 7.8780770531220545)
((-1, -2, 1, 18, 1, -9, -1, -6), 0, 7.8969523254547624)
((-1, 0, 0, 12, -3, -4, 0, -6), 0, 7.915678780542459)
((0, -2, -2, -16, 0, -1, -1, -6), 0, 7.935209190861823)
((-3, -1, 0, -11, -6, -8, -3, -1), 0, 7.962687924535402)
((-1, -4, -5, -9, 0, -3, 3, 0), 0, 7.982478337397773)
((-1, 3, 3, 29, 3, 1, -2, -3), 0, 8.002580639275552)
((-2, -1, 4, 33, 5, 4, 0, -7), 0, 8.020363444782815)
((-2, 0, 0, -4, 0, -18, -4, -1), 0, 8.042556030262928)
((-3, -4, -4, -11, 2, -4, 0, -3), 0, 8.066227095115886)
((0, 1, 2, 20, 10, 77, 38, 7), 0, 8.085642899051162)
((1, -3, -3, 1, -1, -39, -66, -10), 0, 8.102032752337884)
((-3, 3, 1, -11, 2, -31, -19, -8), 0, 8.121010087072342)
((-43, -9, -5, -15, -42, -18, 9, 68), 0, 8.13941039861925)
((20, 21, 4, 14, 43, 4, 22, -32), 0, 8.15905940658981)
((7, 47, 14, -1, -12, 15, 0, -83), 0, 8.17770546615434)
((-21, 113, 18, 5, -2, 28, 8, -59), 0, 8.196951356147036)
((-42, -5, 0, 7, -11, 10, -5, -67), 0, 8.21418906860361)
((-24, -16, -9, -5, 24, -5, -6, 38), 0, 8.232552318384517)
((-3, -19, -1, 4, 40, 23, 3, 41), 0, 8.251918516571456)
((7, 11, -7, -9, -10, -29, -5, 33), 3, 8.275902040620835)
((3, -12, -5, -8, -7, -9, 2, 16), 3, 8.295582408547242)
((5, 8, -1, -4, 27, 18, 9, 40), 3, 8.31436759227952)
((5, -1, 0, 11, 37, 16, 7, -13), 3, 8.33622092005549)
((6, 3, -2, -1, -1, -5, 0, 6), 3, 8.356612873889073)
((12, -2, -3, -8, -8, -8, -3, 2), 3, 8.381334782353354)
((-1, -1, 1, 6, 9, 7, 3, -1), 3, 8.401689104239923)
((3, 13, 1, 0, 0, -2, -2, 2), 3, 8.42095837165425)
((-2, -4, -1, -2, 3, 0, 1, 7), 3, 8.444426452065738)
((1, -2, -1, -6, 4, 0, 1, -4), 3, 8.46620565630971)
((0, -2, -2, 0, -13, -5, -5, -3), 3, 8.486683137295596)
((-2, -5, -1, 5, 7, 5, 1, 1), 3, 8.505696963615039)
((0, 2, 2, 5, -4, -1, -1, 1), 3, 8.527330201519076)
((-4, -1, -1, -4, -1, -3, 1, -3), 3, 8.548682910363553)
((-2, -2, -2, -5, -13, -5, -1, 2), 3, 8.575097686262458)
((-2, -1, 1, 0, -4, 0, 2, 0), 3, 8.593800763928524)
((-2, -4, -2, -8, -1, -18, -6, -4), 3, 8.614202981020384)
((-3, 1, -1, -1, 20, 3, 1, 0), 3, 8.635394328637513)
((-1, -3, -2, -2, 0, 8, -4, -2), 3, 8.65341432944717)
((4, 1, 0, -3, 18, 18, 3, 6), 3, 8.676833374291336)
((-4, -2, -1, -3, -6, -8, -5, -4), 3, 8.69797739688419)
((-3, -1, 0, -5, 2, -6, -4, -4), 3, 8.716739773375854)
((-3, -1, 0, -5, 2, -6, -4, -4), 3, 8.735127540940422)
((9, 2, 2, 6, -12, 0, -1, 1), 3, 8.754711548275232)
((-5, -2, -1, 0, -12, -12, 0, -3), 3, 8.778077566284969)
((0, -2, 0, -2, 5, 3, 0, -1), 3, 8.801394548727384)
((-7, -3, -4, -5, -10, -1, 4, -1), 3, 8.825648908759064)
((-2, -2, -2, 2, 8, -6, -4, -3), 3, 8.847957240985295)
((-12, 0, 1, 1, -6, -1, -1, 0), 3, 8.870120177052609)
((-1, -1, 0, 0, 0, 0, -1, -4), 3, 8.889569051486776)
((1, -3, -4, -5, -5, -4, -2, -2), 3, 8.907536025462003)
((-1, -3, -5, -6, -6, 2, 3, -2), 3, 8.928335088540559)
((-3, 0, -4, -4, -3, -4, -2, -3), 3, 8.947053561094041)
((-1, 0, 1, 2, 19, -4, -6, -2), 3, 8.965625497126572)
((-5, -2, 0, 2, 7, -1, -2, -3), 3, 8.986953118006374)
((4, -2, 0, -2, -6, -1, 4, 1), 3, 9.005223998462792)
((0, -1, 1, 0, 0, 2, 1, 2), 3, 9.023818171554923)
((2, -2, -3, 10, -1, -2, -5, 0), 3, 9.04603983626682)
((-10, 0, 0, -4, 3, 0, -1, -1), 3, 9.066783591786885)
((2, 0, 1, -4, -14, 6, -2, -2), 3, 9.087957263792536)
((3, -1, 0, -1, -12, 1, 1, -2), 3, 9.107780176972783)
((-2, -3, -2, -2, 5, -3, -3, -2), 3, 9.126703344510782)
((-1, -2, -2, -1, 3, -3, -2, -3), 3, 9.14663801317004)
((-3, -4, -3, -1, 1, -9, 0, -1), 3, 9.16600649208104)
((2, 3, -1, -1, -19, -2, 0, 0), 3, 9.190099490885371)
((-1, 0, -2, -2, -3, 1, 0, 2), 3, 9.210848378034575)
((-4, -2, -2, 0, 11, 12, 0, -1), 3, 9.229552596062671)
((1, -1, 0, 0, -2, -7, -3, -3), 3, 9.249075023847821)
((-1, -2, 0, 2, -4, -3, 0, -1), 3, 9.269897464348007)
((-2, 0, 0, -1, -10, -3, -1, -2), 3, 9.291625922481611)
((6, 0, 0, 1, 3, -3, 0, 2), 3, 9.310527423141025)
((1, -2, -2, -2, 9, -3, -4, -3), 3, 9.328327904259766)
((-4, -2, 0, -2, -7, -8, -1, -2), 3, 9.348219239161857)
((-5, -2, -1, -1, -2, -2, -1, -2), 3, 9.36902970586072)
((-2, -3, -2, -3, -8, -2, -4, -1), 3, 9.390807199561644)
((-7, -3, -3, -1, 9, -4, 0, 1), 3, 9.409562733881126)
((0, -2, -3, -3, -15, 0, -1, -2), 3, 9.429370822354972)
((-2, -2, -1, -4, -1, -3, -1, -3), 3, 9.44869767805185)
((4, -2, -4, -4, -20, -4, 1, 2), 3, 9.46766246880397)
((8, -4, -2, -5, -4, -2, -1, -3), 3, 9.489584218301784)
((-3, -1, -3, 0, -17, -7, -4, -3), 3, 9.50885975770728)
((-1, 0, -1, 0, -8, -3, 1, 0), 3, 9.527917487964904)
((0, -2, -2, 0, -2, -5, -4, -2), 3, 9.546998595644158)
((-8, 0, 1, 2, 9, 7, 1, -2), 3, 9.566385320347651)
((-5, -1, 1, -1, -6, -4, -3, 0), 3, 9.591106658630915)
((3, -1, 0, -1, -39, 7, 1, 2), 3, 9.612502131051546)
((0, -2, -1, -2, 12, -1, -2, -2), 3, 9.631394508814713)
((-3, -2, -1, 1, 6, 8, 1, -2), 3, 9.651103955972903)
((-4, -2, 0, -5, 3, -4, 1, -3), 3, 9.66992278038509)
((1, -2, -2, 5, -3, -9, -4, -2), 3, 9.697728227780473)
((-2, -1, -2, -3, 4, -5, -1, -2), 3, 9.716608061561304)
((6, 0, 2, 3, -14, 0, 1, 0), 3, 9.734528850874288)
((-3, -2, -2, -1, 15, 1, -2, -3), 3, 9.753209691480754)
((-2, 1, 0, -1, -9, 1, 1, 2), 3, 9.772701329491074)
((1, -1, -1, 0, 0, 6, 0, -2), 3, 9.800056904065334)
((0, -1, -2, 0, 11, 0, -1, -1), 3, 9.820600526049004)
((-1, -1, -1, 0, 2, 6, 0, -1), 3, 9.840646950187276)
((-16, -1, -1, -1, 4, -2, -2, -3), 3, 9.85982783954422)
((0, 1, -3, -3, 7, -1, -1, -1), 3, 9.880333829580877)
((2, -1, -3, 4, 0, -2, -4, -1), 3, 9.902733390769567)
((2, -2, -4, -5, -2, -2, -3, -1), 3, 9.921410240108928)
((-1, 0, -1, 3, 5, 0, 1, 1), 3, 9.94003748369995)
((4, -1, -2, 1, 0, -4, 0, -3), 3, 9.959519998814024)
((8, -1, -3, -6, -3, -2, 1, -2), 3, 9.97925795502298)
((1, 0, -2, -8, -3, -6, -4, -3), 3, 10.000291932679868)
((5, 0, -3, -3, -16, -2, -1, -1), 3, 10.01900299288015)
((4, -1, -2, -4, 11, 3, -2, 1), 3, 10.039177137565863)
((5, -1, -2, 0, -15, -2, -1, -2), 3, 10.06241144376105)
((3, -3, -1, 2, 2, -5, -2, -1), 3, 10.082305059387204)
((-1, -4, -6, -6, -18, -7, -3, -2), 3, 10.102010515278286)
((8, 0, 2, 4, -37, 6, 7, 1), 3, 10.120933112635269)
((-3, -2, -4, 0, -4, -8, -3, -2), 3, 10.141443664120048)
((0, -1, 0, -6, 4, 1, -1, -1), 3, 10.159828010598524)
((0, 2, 2, 5, -1, -4, -2, 0), 3, 10.178695870578032)
((2, -2, -2, 0, 4, 2, 0, 2), 3, 10.200683190892613)
((-6, -1, 0, 3, 5, 1, -1, -1), 3, 10.220894397344324)
((0, -2, -1, 1, 4, -2, -2, -4), 3, 10.239472605368027)
((-1, -1, -1, -1, 4, -4, -1, -1), 3, 10.25941411619947)
((0, -1, -1, 2, -2, 0, -1, -2), 3, 10.278874964434959)
((-4, -4, -6, -7, -3, -4, -2, -2), 3, 10.303638496113361)
((0, -1, -4, -3, -2, -1, -2, -1), 3, 10.3207821287024)
((-1, -2, 0, -1, 1, -3, -1, -2), 3, 10.340329644452224)
((2, -1, -4, -6, -8, -5, -4, -2), 3, 10.360044793420567)
((3, -3, 0, -3, -16, -1, -1, -1), 3, 10.379436079572182)
((-2, 0, -1, -2, 5, 0, -1, -3), 3, 10.39912842129991)
((-3, 0, 0, -6, -2, -3, -2, -2), 3, 10.42166482593229)
((-1, -1, 2, 4, 3, 0, -1, -1), 3, 10.443495346467643)
((-1, 0, -2, 7, 2, -1, -2, -1), 3, 10.46355830585536)
((-1, 0, -4, -7, 2, -3, 0, -1), 3, 10.483098409251985)
((-1, 0, 4, 10, 1, 0, 0, -2), 3, 10.503067858953182)
((-1, 0, -3, -10, 0, -4, -2, -2), 3, 10.52550220118381)
((-3, -3, -9, -1, -6, -4, -4, -5), 3, 10.544538834743866)
((-2, -5, -11, -23, -8, -6, -4, -6), 3, 10.564443853990326)
((1, 1, 5, 7, 3, 0, 1, 1), 3, 10.583572856874872)
((1, 1, 5, 7, 3, 0, 1, 1), 3, 10.602305583953738)
((-1, 1, 2, 6, 0, 2, 0, -1), 3, 10.625683005583783)
((-1, -1, 0, -9, -3, -1, 0, 0), 3, 10.645111923682412)
((-1, -2, -5, 14, -2, -1, -1, -2), 3, 10.664355532951046)
((0, 0, -2, -11, -2, 0, -2, -2), 0, 10.681825309080875)
((-4, -5, -4, 0, 19, 1, -1, 0), 0, 10.701797039506133)
((-2, -5, -11, -16, -13, -3, -1, -1), 0, 10.721191176562824)
((-3, -1, -7, -5, -8, 0, -3, -3), 0, 10.740263731526849)
((-2, -2, -1, 9, -20, 5, 0, -1), 0, 10.758983914623375)
((-4, -6, -4, -9, -6, 3, 2, -4), 0, 10.77824348896044)
((5, 2, 7, 25, 1, 15, 4, 2), 0, 10.798032191279766)
((1, 2, 7, 21, -72, -8, 3, 0), 0, 10.820603947135098)
((0, 0, 5, 20, 101, 56, -3, 2), 0, 10.840825416845085)
((-5, -5, -6, -20, -36, -27, 5, -1), 0, 10.857491807924262)
((-1, -2, -1, 3, -5, -6, 12, 0), 0, 10.876897348601261)
((-4, -6, -9, -25, -60, -23, -13, -3), 0, 10.89529994087223)
((3, 3, 2, 11, 10, 2, 14, 19), 0, 10.916108697028045)
((-8, -6, -7, -5, -6, -10, -14, -14), 0, 10.93237425085342)
((-1, 0, -3, -3, 14, 7, 17, 2), 0, 10.952301507159477)
((7, -1, -4, -10, -60, -33, 42, 58), 0, 10.97138774646787)
((-30, -19, -14, -9, -5, -25, -102, -37), 0, 10.991268818111687)
((43, 16, 11, 8, 60, 34, 58, 64), 3, 11.011099713826148)
((43, 16, 11, 8, 60, 34, 58, 64), 3, 11.031142716878326)
((-45, -12, -13, -37, -9, -44, -27, -49), 0, 11.051460547179913)
((-29, -5, -6, 10, -7, 3, 20, 10), 1, 11.070945913199063)
((10, 1, 4, 17, -1, 11, 13, -29), 1, 11.09145076287369)
((2, 1, 5, 19, -2, 20, -37, -7), 1, 11.111803374217212)
((11, 5, 1, 7, -3, -44, -6, 0), 1, 11.136221946381317)
((12, 0, -3, 4, -6, -28, -12, -6), 1, 11.156052271914765)
((-2, 1, 2, 1, -3, 68, -12, -13), 1, 11.175572989156867)
((13, -13, -9, 4, 5, 67, -24, -9), 1, 11.194686597153998)
((-2, 8, 11, 3, -2, -13, 19, 2), 1, 11.215313465565913)
((2, 1, -2, 0, 2, -23, 4, 17), 1, 11.24034954376966)
((-8, -3, -6, -20, -4, -6, -17, -11), 1, 11.259980876128745)
((1, 2, 6, 24, 9, -4, -31, -11), 1, 11.27897075484554)
((-2, -1, 0, 3, -3, 8, 27, 30), 1, 11.297563787575642)
((7, 1, 1, 4, 3, -9, -5, -3), 1, 11.317779555475477)
((0, 1, 1, 9, 5, -6, 11, -5), 1, 11.33856550439068)
((-4, -3, -4, -16, -4, -6, -4, -17), 1, 11.358957458224262)
((-2, -1, -3, -9, -1, 7, -8, -6), 1, 11.379287262327171)
((1, 4, 5, 5, 2, -3, -19, -5), 1, 11.396815767101582)
((4, 0, -2, 3, -3, 0, 23, 20), 1, 11.417163246815967)
((-5, -5, -4, -15, -8, -15, -1, -7), 1, 11.437405813223524)
((-4, -3, -1, 1, -2, -2, 0, -11), 1, 11.456728677653295)
((-1, -1, -2, -9, 0, 0, -3, -3), 1, 11.47627733376515)
((0, -1, 1, 11, 2, 1, -6, -3), 1, 11.495290019722562)
((-3, -2, -2, -7, 1, 12, 12, -7), 1, 11.514364285229632)
((-1, -1, -3, 4, 0, -1, 0, 2), 1, 11.53700902425493)
((-4, -3, -2, -1, -2, 0, 0, 0), 1, 11.557805806609425)
((-2, -2, -1, 0, -2, -4, 1, 4), 1, 11.576669675321824)
((-2, -2, -4, -7, -9, -2, 32, 13), 1, 11.596956715848581)
((-2, -2, -4, -7, -9, -2, 32, 13), 1, 11.615875321938455)
((0, -2, -1, 1, -4, 2, 5, -6), 1, 11.635498101582309)
((-2, -1, -1, 0, 0, -3, -6, 3), 1, 11.658844163256509)
((-1, 2, 0, -8, -3, 4, 3, 4), 1, 11.679750420365954)
((-2, -2, -4, 3, -1, -3, 0, -10), 1, 11.698545297175494)
((-1, 1, 2, 4, 3, 0, -9, -7), 1, 11.718989707662491)
((-1, -2, 3, 13, 7, 3, 1, -2), 1, 11.742897967817843)
((-2, -1, -2, -3, -3, -2, -10, -3), 1, 11.763229482463798)
((1, -1, 1, 1, 0, 6, 20, 5), 1, 11.782666383096641)
((0, 0, 0, 1, 1, -5, -3, -11), 1, 11.811197670924589)
((0, -2, 0, 1, 1, -2, -8, -9), 1, 11.832349676051656)
((0, -3, 0, -3, 3, 5, -4, 0), 1, 11.854151117355228)
((-5, 1, -1, -6, -3, -1, -4, -11), 1, 11.87431670932571)
((-2, -4, -4, -9, -4, -5, -5, -5), 1, 11.89344400166721)
((0, 3, 0, -3, -3, -8, -7, -2), 1, 11.910914918159069)
((0, 0, 1, 2, -1, 4, 23, -10), 1, 11.928137235728226)
((-1, -2, -1, -1, -1, 8, 19, 10), 1, 11.948338749102678)
((-2, -4, -5, -14, -3, 2, -9, -4), 1, 11.965441898839625)
((5, 1, 2, 7, 1, 4, 12, 12), 1, 11.98451559416568)
((3, -3, -2, -1, 0, -4, 4, 3), 1, 12.001908966039448)
((0, -3, -5, -10, -2, 1, 14, 6), 1, 12.021672580394098)
((-6, -3, -3, 1, -3, -15, -3, -9), 1, 12.048767582244334)
((0, 0, 1, -7, -1, -2, 4, 5), 1, 12.068916068784358)
((-2, 0, 0, 5, 0, 0, -5, 3), 1, 12.089276662662096)
((-3, 0, 0, 2, 1, 3, 33, -1), 1, 12.109750152380876)
((1, -1, -1, 2, 0, 1, -1, 1), 1, 12.129612978232199)
((0, -1, -1, -1, 2, 8, -24, -1), 1, 12.153766416224158)
((-1, -1, -1, 1, 1, 0, 2, 1), 1, 12.176882694949166)
((-1, -2, 1, -8, -1, 9, 42, 6), 1, 12.196087531908756)
((-3, -1, -1, 1, -2, 3, -4, 3), 1, 12.214691398078148)
((-2, -1, -1, 3, -1, -4, -12, 23), 1, 12.233762242499127)
((-2, -1, -1, 3, -1, -4, -12, 23), 1, 12.253211116933294)
((-2, -1, -1, 2, 0, -7, -3, 3), 1, 12.273377849265806)
((-4, -3, -4, -17, -2, 3, -1, 0), 1, 12.293456773721953)
((0, 0, 2, 3, 2, 5, 34, 7), 1, 12.313155957621866)
((0, 1, 0, -3, 0, 0, -12, -6), 1, 12.33161328727031)
((0, -1, 0, 5, 2, -5, -18, -6), 1, 12.353137620600412)
((-1, -2, -1, 2, 0, 1, 16, 2), 1, 12.37370005855759)
((-1, -1, -1, 1, -2, -2, -7, 10), 1, 12.39257875197639)
((0, 1, 2, 4, 2, 7, 7, 0), 1, 12.408792419329364)
((-2, -3, -1, -3, 1, -2, 2, -2), 1, 12.425974254046432)
((0, -1, 0, -7, -5, -4, -12, -12), 1, 12.446070854114055)
((-1, -3, -6, -8, -5, -4, -16, -6), 1, 12.471152546799033)
((-1, 0, 0, 7, -1, -1, -1, -5), 1, 12.489283732906685)
((3, -2, 0, -2, 2, 0, 9, -1), 1, 12.508506245477752)
((1, 0, -3, 5, 1, 6, -18, 2), 1, 12.528095954622714)
((-4, -4, -2, 0, 1, -2, -2, -6), 1, 12.548021500385728)
((2, 0, -2, -4, -4, -4, -1, 1), 1, 12.572820383287082)
((-1, -2, -5, -14, -2, 7, 25, 2), 1, 12.592002983187072)
((-1, -1, -1, 8, -2, -2, -4, 1), 1, 12.610764789497722)
((-1, 0, 0, 1, 0, -2, -2, -1), 1, 12.62888799307116)
((-4, -3, -2, -4, -3, 2, -14, -4), 1, 12.648391034701786)
((0, -2, -3, -2, -2, -4, -10, -6), 1, 12.66818372828822)
((-2, 0, 1, 0, -1, -1, -6, -8), 1, 12.686878253239056)
((-2, -2, 0, 2, -2, 0, 5, 3), 1, 12.705101808671198)
((-3, -4, -10, -45, -13, -1, 30, -2), 1, 12.723856772809665)
((-2, -2, 1, -1, 0, 4, -3, -5), 1, 12.742610596586099)
((2, -1, 0, 11, 2, -2, -8, 3), 1, 12.764732479620305)
((-3, 0, 1, 7, 0, -4, 5, -7), 1, 12.783644243537996)
((-2, -1, -1, 1, -2, -4, -9, -4), 1, 12.810869816840752)
((-1, -1, 1, 1, -1, -1, -8, -3), 1, 12.8289673622685)
((-3, -1, -1, 1, -2, -2, -3, -5), 1, 12.849779539510408)
((0, -2, 0, -3, -1, 1, 4, 12), 1, 12.872232127533527)
((-2, 0, -2, -5, -15, -10, 14, -9), 1, 12.890729940034063)
((-3, -2, -4, -19, -49, -17, -2, -8), 1, 12.911721154114797)
((9, 17, 7, 16, 36, 21, 0, 0), 1, 12.930260019648438)
((-4, -5, -1, -2, -1, 3, 0, -8), 1, 12.950479208634365)
((0, -2, -4, -5, -33, -1, 1, -1), 1, 12.973515091836205)
((-2, -1, -3, -4, -20, -5, -4, -12), 1, 12.994063845449014)
((1, -9, -2, 1, 31, 1, -3, -1), 1, 13.013764169710958)
((-1, 2, -10, -5, -5, 2, 0, 2), 1, 13.032842996666151)
((1, -9, 7, -3, -20, -2, -1, 2), 1, 13.05684989813716)
((-4, -3, 6, -1, -11, 4, -1, -2), 1, 13.079157090001363)
((-4, -5, -3, -4, -10, 6, 4, 16), 1, 13.098542674342823)
((-1, -4, -2, 2, 12, 12, -2, -6), 1, 13.11720640951883)
((-1, 10, 4, -4, -26, 20, -4, -4), 1, 13.136309754257685)
((-1, 0, 3, -3, -16, -50, 0, 0), 1, 13.15594336734083)
((1, -1, 0, 5, 1, -37, -1, 0), 1, 13.176261767823432)
((-3, -4, -2, 3, 9, -20, -4, -4), 1, 13.194675763714706)
((-1, 2, -2, -8, 0, 5, 0, 0), 1, 13.214882978899311)
((1, -1, -2, 6, -1, 0, -4, -3), 1, 13.233257062119511)
((1, -1, -6, -16, -1, -1, 1, -1), 1, 13.253391864315164)
((0, 2, 2, 9, -2, 2, -2, -2), 1, 13.274909925654097)
((5, 0, 7, 57, 59, 10, 0, -2), 1, 13.2934065977926)
((0, 2, 1, -17, 28, -3, 0, -1), 1, 13.310157375662051)
((-2, -1, 0, -13, 24, -1, -1, 0), 1, 13.330087482873187)
((-5, -1, -2, 10, 2, -2, -3, -2), 1, 13.349383548795236)
((-1, -3, 0, 1, -17, -3, -1, -2), 1, 13.37005603168838)
((0, 2, 2, -4, -18, -15, -4, -1), 1, 13.39346481327427)
((0, -2, -7, -8, 27, 12, 10, 0), 1, 13.41172200938632)
((0, -2, -2, 3, -31, -10, 10, 1), 1, 13.43130088509199)
((-2, -3, -1, 4, -5, -1, 9, -1), 1, 13.44777113390188)
((0, -3, -1, 1, -30, -24, -7, -6), 1, 13.468174491355771)
((6, 2, 3, 4, -1, 0, 33, 7), 1, 13.492975084800172)
((1, 0, 1, -2, -33, -4, 12, -3), 1, 13.512722163905375)
((-4, 0, 1, 2, 25, 12, 6, 30), 1, 13.531540418136546)
((-17, -16, -7, -13, 21, -5, -35, -23), 1, 13.552304129992148)
((11, -22, -7, -9, -44, -20, 18, 27), 1, 13.57090685579951)
((95, 85, 27, 24, 61, 17, 23, -74), 0, 13.590875735319692)
((4, -2, -10, -9, -42, -8, -14, 41), 0, 13.61038333839844)
((29, 36, 9, 1, -2, 15, 16, 69), 0, 13.63073651992298)
((-34, -26, 11, -2, -7, -16, 1, 109), 0, 13.649948769235769)
((-35, 10, 2, 3, 72, 1, -1, -52), 0, 13.668761321656786)
((-9, 4, -4, -9, -44, 2, -8, -61), 2, 13.689269592417505)
((-20, 7, 3, 25, 15, -14, 16, -20), 2, 13.70987536413185)
((-12, 17, -3, -3, -56, 10, 26, -52), 2, 13.72824830699002)
((-10, -15, -1, 8, -81, -42, -8, 19), 2, 13.748576970730898)
((2, 7, 1, -8, 1, -2, 25, -15), 2, 13.770319683389886)
((12, 4, 2, 8, 28, -29, -37, 78), 2, 13.79869132053353)
((-8, -6, -2, -1, -5, 3, 8, -40), 2, 13.819825079868107)
((-11, -7, -7, -12, 7, 4, 11, -22), 2, 13.839902293781206)
((-2, -6, -7, -6, -22, -14, -10, -11), 2, 13.86016253580024)
((-10, -2, -4, -8, 20, -12, -10, -106), 2, 13.879117063294084)
((-5, 2, 0, -1, 11, 2, 1, 1), 2, 13.900293586204812)
((-1, -4, -4, -1, -8, -9, -3, 0), 2, 13.921644014325228)
((3, 2, 5, 7, -1, 17, 4, 1), 2, 13.942119784768071)
((3, 2, 5, 7, -1, 17, 4, 1), 2, 13.96044711314501)
((-8, -2, -2, -4, 14, 10, 7, 17), 2, 13.981072841194894)
((-3, -2, -3, -6, -20, -10, -4, -4), 2, 14.00429631395079)
((1, -1, -2, -5, 11, 3, -2, -55), 2, 14.022768468305634)
((-1, -2, -2, -7, -15, -8, -4, -2), 2, 14.042931779552054)
((-1, 0, 0, 1, 2, 15, 29, 22), 2, 14.062108107460876)
((-3, -4, -1, 1, -49, -12, -6, 20), 2, 14.082573614645442)
((-3, -8, -7, -5, 4, 4, 1, -6), 2, 14.105814763012814)
((-8, -1, 1, 1, -1, -4, -4, -24), 2, 14.125945003760345)
((-2, -3, -5, -3, -11, -12, -1, 13), 2, 14.146127130980272)
((0, -2, -3, 0, -11, 6, -6, 1), 2, 14.166317810915432)
((1, -2, -1, 8, -4, -5, -4, -1), 2, 14.190265983741858)
((0, -4, 1, 5, 24, 1, 8, 12), 2, 14.21203777563263)
((-2, 0, 0, 0, -6, 1, 1, 4), 2, 14.231240331868158)
((1, -2, -2, 0, 31, 4, 1, 11), 2, 14.253089098196003)
((-2, 0, 1, -2, 13, 2, -3, 4), 2, 14.272550516612508)
((3, 3, 5, 3, -11, 30, 13, 17), 2, 14.2907164837621)
((-1, -1, -5, -2, 16, -4, 0, -3), 2, 14.314448557983702)
((-8, -6, -5, -15, -31, -14, -8, -83), 2, 14.335702055331506)
((2, 4, -1, 0, 2, -5, -5, 6), 2, 14.355489047107785)
((2, -3, -2, 2, 38, 10, 4, 29), 2, 14.374573005692117)
((-1, -2, -3, -2, -13, -6, -4, -11), 2, 14.39432749715052)
((-2, -2, -2, -5, -2, -8, -3, 3), 2, 14.417147851928553)
((-5, -5, -3, -3, 1, 0, -4, -12), 2, 14.436766070124282)
((-4, -1, 0, 7, 22, 2, 0, -4), 2, 14.455827791649014)
((-2, -1, -5, -4, 7, 0, -4, 4), 2, 14.475918689906484)
((-2, 2, 0, -5, -28, -8, -3, -11), 2, 14.495309976058099)
((0, 0, -1, -2, 12, 1, -2, -2), 2, 14.521281151127049)
((0, -1, 0, -1, -4, 1, 0, -1), 2, 14.540617699901187)
((-2, -1, 0, -1, 9, 3, 0, -1), 2, 14.560109337911507)
((33, 2, -3, -3, -2, -5, -1, 4), 2, 14.581138183939256)
((-3, 1, 2, 6, -55, 2, 5, 6), 2, 14.605043023008514)
((-6, -1, -1, -3, 17, -4, -2, 6), 2, 14.625180676109244)
((-5, -1, 1, 3, 18, 1, -1, 14), 2, 14.6439909478062)
((2, -1, 2, 16, -22, 3, 2, 2), 2, 14.663380523414768)
((2, -1, 2, 16, -22, 3, 2, 2), 2, 14.681636008983771)
((-5, -2, -3, -5, -11, -3, -2, -6), 2, 14.70372710224315)
((-6, -3, -3, -3, -6, -1, -1, 11), 2, 14.72612552306981)
((2, -3, -3, -7, -38, -6, -5, -5), 2, 14.745204350025002)
((-6, 0, 1, 0, 47, -2, -3, -12), 2, 14.76360694229597)
((-6, 0, 1, 0, 47, -2, -3, -12), 2, 14.780520791935816)
((0, -3, -2, -6, -20, -8, -3, 0), 2, 14.807614653424023)
((2, 0, 0, 3, 14, 6, 1, -11), 2, 14.832040067760312)
((-6, -2, -4, -5, -9, -7, 1, 1), 2, 14.851965613523324)
((0, -3, -2, 0, -34, -3, -2, 4), 2, 14.871944186120768)
((-1, -2, 0, 0, 5, 7, -1, -2), 2, 14.889243478127002)
((-3, 0, -3, -1, -26, -7, -1, 2), 2, 14.91152387148348)
((-3, 0, -4, -7, -17, -6, -3, -3), 2, 14.934447429025292)
((1, -3, -3, -3, -8, 0, -3, 0), 2, 14.954678021631528)
((0, -1, -1, -3, 1, 1, -3, -6), 2, 14.974926289849238)
((0, -3, -2, 0, -1, 7, 1, -6), 2, 14.994370602835282)
((5, 2, 8, 10, -2, 14, 4, 7), 2, 15.016558056686256)
((-1, -7, -6, -6, 4, -4, -5, -2), 2, 15.039027750139837)
((-4, 1, -2, -4, 8, 2, 2, -7), 2, 15.058455527876434)
((-3, -3, -3, -10, -28, -6, -5, 2), 2, 15.077883305613033)
((-1, -1, -2, -1, 12, -5, -2, -13), 2, 15.098394997459843)
((-2, -1, -1, -3, -15, 0, 0, -2), 2, 15.121133246171663)
((0, 6, 6, 1, -16, -7, -1, -4), 2, 15.1410114669104)
((-10, 2, 4, 5, 24, 2, 0, -11), 2, 15.160568675737487)
((-3, -8, -5, -7, 7, -2, -1, 0), 2, 15.17977921450723)
((-1, 0, 0, 2, -10, 5, -2, 4), 2, 15.197803206583995)
((-2, -6, -2, 0, 11, -1, 0, 14), 2, 15.222770292884881)
((-2, -1, 1, -1, -1, -1, 0, 2), 2, 15.241948901517764)
((0, 1, 1, 1, 2, 0, 2, -7), 2, 15.260623470133064)
((-2, -5, -6, -8, 0, -2, -4, -4), 2, 15.279978264699695)
((-1, -2, -1, 3, 30, 3, 1, 23), 2, 15.30110233095701)
((-1, 1, -1, -1, 34, 6, 1, -6), 2, 15.323342241461397)
((-7, -1, -3, -5, 16, -5, -1, 2), 2, 15.34418349793509)
((-2, -2, -2, -2, 2, -2, -3, -6), 2, 15.363029691036013)
((-1, -1, -1, -2, -3, 4, -2, -9), 2, 15.385343154891384)
((0, 3, 2, 1, 2, 0, -1, -8), 2, 15.405690634605769)
((-2, 0, -2, -1, -11, -7, -3, -1), 2, 15.42866721898201)
((-2, -1, -1, -3, 7, -5, -5, -5), 2, 15.450627170607852)
((-2, -1, 0, -5, -3, -8, -5, -2), 2, 15.47102368588956)
((-1, -1, -3, -1, 9, 2, 2, 1), 2, 15.489981634469496)
((-1, -1, -3, -1, 9, 2, 2, 1), 2, 15.506139994263979)
((-2, -3, -5, -5, -11, -10, -5, -1), 2, 15.529041884927208)
((-1, -1, -2, -1, 2, 6, -1, -1), 2, 15.54908317743634)
((-2, -2, 1, -2, 5, -1, -3, -1), 2, 15.569620527428842)
((-1, -4, 0, 2, -7, -9, 0, -2), 2, 15.589993095107904)
((-1, -2, -3, -5, 6, -2, -1, -2), 2, 15.608332397286166)
((0, 0, 4, 1, 30, 4, 0, 0), 2, 15.629808835410978)
((0, -3, -4, -8, -6, -2, 0, -1), 2, 15.649994953898014)
((-4, -5, -7, -5, -21, -13, -4, -2), 2, 15.669914797850874)
((-2, -2, -3, -1, -19, -4, -2, -1), 2, 15.688372697680332)
((-3, -6, -7, -1, 3, -2, -2, -2), 2, 15.707951003204988)
((-3, -6, -7, -1, 3, -2, -2, -2), 2, 15.726194514972669)
((-2, 0, -2, 5, 25, 7, 0, 1), 2, 15.752450210368286)
((0, 0, 0, -4, -3, -2, -5, -2), 2, 15.774780209473102)
((2, 1, -1, -8, -7, -1, 0, 1), 2, 15.800785025221957)
((-3, -5, -5, -15, -5, -6, 1, -1), 2, 15.823615643258265)
((-1, 0, 4, 31, -8, -2, -10, -7), 2, 15.84460058534783)
((4, 3, 2, -2, -20, -1, 51, 2), 2, 15.866822820240742)
((-1, 1, 3, 8, -25, -6, -13, -1), 2, 15.890843976237136)
((-1, -3, -4, -9, -2, -2, -11, 28), 2, 15.90970613440649)
((-3, -4, -6, -5, -12, -11, -31, -22), 2, 15.93019216810761)
((1, 1, 1, 8, 5, 2, 2, -8), 0, 15.951670886956482)
((-6, -2, -1, -3, 6, -3, 7, -10), 0, 15.971576476383957)
((0, 1, 8, 19, 4, -2, -13, 0), 3, 15.992014614879785)
((0, -2, -5, -7, 5, -1, -31, -4), 3, 16.00969421762327)
((-7, -3, -2, -15, -10, 5, 6, 11), 3, 16.029805072216277)
((1, -4, -8, -26, -15, 0, -17, -10), 3, 16.05368368295883)
((-10, -1, 1, 9, -8, -1, 4, -2), 0, 16.074225594399454)
((0, 5, 8, -2, 7, 5, 1, 7), 0, 16.09360547693076)
((-3, -2, 2, -8, -8, 1, 5, -1), 0, 16.112611890897004)
((0, -1, 2, 10, -39, -6, -7, -4), 0, 16.133587139909306)
((-19, -5, -4, -7, 16, 4, -5, -5), 0, 16.157267327658513)
((-11, -4, -1, -12, -15, -13, 9, -4), 0, 16.177160943284665)
((-3, -2, -1, 6, 33, 4, -7, -2), 0, 16.197534651325757)
((-9, 10, 6, 18, -6, 8, -43, -15), 0, 16.218022965750936)
((2, 76, 5, -1, 28, 4, 1, 25), 0, 16.238327111708156)
((28, -31, -6, -8, 5, 10, 10, -68), 0, 16.259863989020594)
((-5, -34, -6, -8, -52, -13, 19, 24), 0, 16.278499785326847)
((-15, 8, 5, 9, -58, 12, 16, -39), 0, 16.299215031796145)
((15, -17, -5, 9, 59, -7, -2, 44), 0, 16.3200363319343)
((-2, -33, -1, 7, -30, -13, 5, 33), 0, 16.33996929005051)
((0, -7, -7, -6, 43, -11, -2, 5), 0, 16.362732626727006)
((18, 1, 7, 26, 29, 4, 5, -17), 3, 16.382503653434856)
((-37, -19, -4, -9, -36, -23, -9, -8), 3, 16.40137322395741)
((-7, 6, -7, -19, -42, -29, -10, -13), 3, 16.41974730717761)
((7, 12, 4, -11, -7, 13, -11, -13), 3, 16.440027505532182)
((17, -2, -3, 4, 18, 11, -1, 55), 0, 16.46250004989084)
((9, -7, -5, -6, 10, -4, -6, -20), 0, 16.481641026576707)
((0, -3, -4, -6, 14, -8, -3, -6), 3, 16.501434860525173)
((-1, -3, -2, 0, -18, -4, -4, -23), 3, 16.520175570138253)
((-5, -7, -3, -1, -9, -7, -11, -22), 3, 16.53866939137168)
((0, -1, 0, 3, 37, 5, -1, -14), 3, 16.5642648171515)
((-3, -3, -3, -3, 10, -3, 5, 45), 3, 16.585238925801775)
((7, -2, -3, -4, -19, -5, -1, -2), 3, 16.60563829198856)
((-2, -4, -3, 2, -7, 6, 0, 7), 3, 16.625992613875127)
((-3, -3, -4, -4, 5, 1, 0, 0), 3, 16.64802497848992)
((0, -2, -3, -1, 19, 6, -1, -16), 3, 16.669631417886237)
((2, 1, 4, 13, 30, 13, 4, 4), 3, 16.689160117662553)
((-9, -1, -1, -1, -17, -3, -2, -1), 3, 16.70770696573041)
((3, 1, 2, -2, -30, 0, 2, -5), 3, 16.726470482584105)
((1, 0, 2, 8, -18, 7, 5, 4), 3, 16.74625291291226)
((-3, 0, 0, 8, 8, 8, 1, -6), 3, 16.77143666799899)
((6, -3, -4, -4, 4, -6, -5, 2), 3, 16.794611105187563)
((3, 0, -3, 1, -17, -1, -1, -2), 3, 16.819069590022746)
((4, 3, 0, 7, 1, 5, -1, 2), 3, 16.83763753478817)
((3, -1, -1, -3, 1, 3, -1, 1), 3, 16.860774910210743)
((-6, -1, -2, -4, 2, -6, -3, -3), 3, 16.88090058951015)
((1, -2, 0, -1, -10, 4, 0, 2), 3, 16.90038481516727)
((3, 0, -1, -1, -7, -5, -2, -4), 3, 16.91964610004738)
((-11, -3, 1, 0, -3, 6, 1, -2), 3, 16.939075588327025)
((-5, 0, -2, 1, 3, -1, -1, -3), 3, 16.9580312561829)
((-4, -2, 0, -6, -4, -4, -3, 3), 3, 16.980892093813022)
((-2, -1, -1, 0, 1, 4, 1, 2), 3, 17.000017675611478)
((-6, -3, -3, -2, 9, -5, -2, 6), 3, 17.019741947476064)
((8, 2, -3, -6, -6, -6, -3, -4), 3, 17.03845528840041)
((-7, -2, -2, -2, -10, -1, -3, 0), 3, 17.05806495388091)
((-8, 1, -1, -2, -5, -3, -2, -6), 3, 17.082738967139896)
((-14, -1, -3, -1, -7, -4, -1, 2), 3, 17.103206755048525)
((-1, -2, -1, 1, -8, -5, -1, -4), 3, 17.122996027548865)
((3, 0, 2, 8, -11, 4, 1, 2), 3, 17.142083977400304)
((1, 1, 1, -4, -5, -1, -4, -2), 3, 17.166065220725624)
((2, -2, -1, -3, 11, 3, -1, -1), 3, 17.18740937685487)
((-3, -5, -4, -3, 1, -10, -6, -2), 3, 17.207138780348597)
((18, 2, 1, -1, -9, 3, 1, 0), 3, 17.225409090624)
((-3, 1, -2, 0, 4, -3, -1, -2), 3, 17.24525138995877)
((-13, 0, 0, -2, -13, -4, -1, -4), 3, 17.265201453505444)
((-6, -2, -2, 4, 13, 1, -2, -21), 3, 17.286185825413995)
((-1, -2, -1, -4, 7, -1, 2, 4), 3, 17.305435136492783)
((-3, -1, 0, 1, -12, -3, -2, -7), 3, 17.32450484055173)
((0, 1, 1, 3, 6, -2, -3, 2), 3, 17.343049407895524)
((5, -2, -1, -3, -7, 5, 0, 1), 3, 17.3651849752741)
((-7, -3, -4, -6, 17, -8, -5, -2), 3, 17.385940134414472)
((-3, -1, -1, -3, -8, 0, -1, 0), 3, 17.404797731135705)
((3, -1, 2, 4, -5, 4, -1, 0), 3, 17.423891952978313)
((0, 1, -2, 1, 4, -2, -1, 1), 3, 17.447029898581903)
((-7, -2, -3, -5, 6, 1, 0, -1), 3, 17.468662566304925)
((-2, 0, -4, -1, 10, -4, -2, 0), 3, 17.488759736553565)
((3, -2, -2, -4, 11, -1, -1, -2), 3, 17.507916108126846)
((-1, 0, 0, -5, 1, -3, -3, -2), 3, 17.528415826172335)
((1, -2, -2, -3, -1, -7, 0, 0), 3, 17.547394301268824)
((1, -2, -2, -3, -1, -7, 0, 0), 0, 17.56012359243689)
((1, -2, -2, -3, -1, -7, 0, 0), 0, 17.560995399209386)
((1, -2, -2, -3, -1, -7, 0, 0), 0, 17.56287300529299)
((1, -2, -2, -3, -1, -7, 0, 0), 0, 17.56438455516473)
((1, -1, -1, -1, -5, -3, -4, -2), 0, 17.565795182996744)
((1, -1, -1, -1, -5, -3, -4, -2), 0, 17.56657462044475)
((1, -1, -1, -1, -5, -3, -4, -2), 0, 17.567303311782393)
((1, -1, -1, -1, -5, -3, -4, -2), 0, 17.568143188418027)
((1, -1, -1, -1, -5, -3, -4, -2), 0, 17.56908683799846)
((1, -1, -1, -1, -5, -3, -4, -2), 0, 17.57002307522569)
((1, -1, -1, -1, -5, -3, -4, -2), 0, 17.57156655523429)
((-2, -1, 2, -1, -7, -2, 0, -1), 0, 17.57289564718111)
((0, -3, 0, 6, 23, 5, -3, 0), 0, 17.57355420625386)
((0, -3, 0, 6, 23, 5, -3, 0), 0, 17.575440365052692)
((0, -3, 0, 6, 23, 5, -3, 0), 0, 17.576293355851682)
((0, -3, 0, 6, 23, 5, -3, 0), 0, 17.57721533855353)
((0, -3, 0, 6, 23, 5, -3, 0), 0, 17.57905873377621)
((-2, -2, -2, -11, -16, -1, -2, -2), 0, 17.580680328583917)
((-2, -2, -2, -11, -16, -1, -2, -2), 0, 17.58180586590825)
((-2, -2, -2, -11, -16, -1, -2, -2), 0, 17.58276833146219)
((-2, -2, -2, -11, -16, -1, -2, -2), 0, 17.591701357429944)
((-2, 0, -2, -3, -5, -6, -4, -1), 0, 17.597367246179644)
((-2, 0, -2, -3, -5, -6, -4, -1), 0, 17.600294555512537)
((-2, 0, -2, -3, -5, -6, -4, -1), 0, 17.601848868960428)
((-3, -3, 2, 6, -6, 1, 0, 0), 0, 17.60571697696868)
((-3, -3, 2, 6, -6, 1, 0, 0), 0, 17.606925760721257)
((-3, -3, 2, 6, -6, 1, 0, 0), 0, 17.619987467421282)
((-3, -3, 2, 6, -6, 1, 0, 0), 0, 17.62117743520035)
((-3, -3, 2, 6, -6, 1, 0, 0), 0, 17.637470927895478)
((-2, 2, -1, -4, -8, -1, 0, 0), 0, 17.651627952326024)
((-2, 2, -1, -4, -8, -1, 0, 0), 0, 17.6524729605908)
((-1, 0, -1, -3, -3, -3, -3, 0), 0, 17.654011879151273)
((-1, -1, 1, 2, -2, -2, -1, 0), 0, 17.665332823211386)
((-1, -1, 1, 2, -2, -2, -1, 0), 0, 17.667875260358905)
((-1, 2, -1, 3, -3, -1, -1, -1), 0, 17.669666769109188)
((-1, 2, -1, 3, -3, -1, -1, -1), 0, 17.6710066944953)
((-1, -1, -2, -1, -1, -1, 0, 0), 0, 17.67265850889682)
((-3, -4, -1, -3, 7, 5, -3, -2), 3, 17.69011060941517)
((-2, -1, -1, -4, -4, 0, -3, -2), 3, 17.715148398161965)
((3, 1, -4, -5, -4, -2, -1, 2), 3, 17.733389629205583)
((-5, -4, -3, -3, 9, -6, -1, -3), 3, 17.751395375489857)
((0, 0, 0, 1, 6, -3, -1, -2), 3, 17.771254780255088)
((-2, -1, -3, -6, 6, -2, 0, -2), 3, 17.80024050235228)
((-1, 1, 1, 5, 10, -1, -2, -1), 3, 17.82105553049927)
((-1, -1, -1, 3, 0, -2, -2, 1), 3, 17.840699406840688)
((-2, 0, -3, -3, -1, -1, -1, -4), 3, 17.85933064169882)
((0, 2, 6, 21, -14, -2, 0, -1), 3, 17.885336027628693)
((0, 0, 0, 11, 1, -11, -3, 0), 3, 17.906196100075892)
((-2, -2, 0, 4, 2, -2, 0, -1), 3, 17.92532111169333)
((-2, -2, -3, -6, -6, -3, 1, 0), 3, 17.942776063116757)
((-2, -2, -3, 10, 0, 2, -1, -1), 3, 17.962701038698757)
((-1, -1, 4, 13, -1, -2, -1, -3), 3, 17.981461134466358)
((0, -2, -1, 14, 9, 3, -8, 6), 3, 18.00050346983657)
((-3, -2, -4, -25, 2, 5, -3, -4), 3, 18.020061819025685)
((1, 0, -1, 15, 12, 0, -6, -2), 3, 18.040807285088796)
((2, -1, 0, 4, 47, -4, -2, 5), 3, 18.05972988244578)
((-1, 0, -2, -6, -34, 5, 0, 2), 3, 18.079124019502473)
((2, 4, 5, 22, 11, 30, 8, 7), 3, 18.101539545759593)
((0, -5, -3, 2, -24, -12, -4, -3), 3, 18.12150272346962)
((-2, -3, -6, -44, -31, -15, -4, -3), 0, 18.140514269065)
((0, -2, 1, 3, -25, -9, -5, -6), 0, 18.159465945653768)
((-6, -2, -5, -9, -48, -14, -8, -2), 0, 18.179823688626428)
((-1, -1, 2, 20, 50, 9, -13, 0), 0, 18.201765964640796)
((-24, -8, -4, -7, 22, -9, -29, -28), 0, 18.21974434223633)
((-16, -15, -15, -33, -24, -34, -128, -109), 0, 18.240335289244275)
((19, 11, 10, 3, 17, 28, 127, 42), 0, 18.26262879676411)
((-60, -25, -18, -102, -29, -39, -118, -75), 0, 18.283365139930975)
((-28, -9, -6, -9, -10, -14, -33, -26), 1, 18.305955141578796)
((-12, 6, 5, 20, -2, -2, 15, 9), 1, 18.32539945456484)
((18, 16, 8, -2, 6, 14, 5, 30), 1, 18.344776486191073)
((-52, 2, 1, 18, 5, 12, 22, -2), 1, 18.364728830461807)
((-13, -7, -5, 1, -6, -23, -38, -28), 1, 18.38412923950967)
((1, 1, 2, 14, 7, -2, -18, 17), 1, 18.409464662746483)
((-13, -5, 1, 9, -2, 6, -9, -26), 1, 18.429519639599985)
((22, 0, -1, 10, -2, -3, 3, 2), 1, 18.44878662629025)
((23, -3, -4, 8, -1, -23, -32, -2), 1, 18.46729812313515)
((-9, -8, -10, -15, -3, -17, 7, -12), 1, 18.486685418019658)
((3, -5, -7, -7, -11, 11, -16, 1), 1, 18.512590452090826)
((3, 0, 1, 15, 4, 0, -45, -11), 1, 18.53229704834394)
((-27, -4, 1, 21, 4, 6, -1, 1), 1, 18.551808642689796)
((20, 2, 3, 15, -3, -4, 5, 10), 1, 18.570520273071093)
((-6, -7, -6, 4, -10, -13, -6, 3), 1, 18.591406003663984)
((13, -1, -4, -17, -6, -5, 10, 6), 1, 18.615711679987047)
((6, -1, -2, -16, -2, -3, -18, 7), 1, 18.635808850235684)
((-20, 0, -1, 14, -1, 5, 10, 19), 1, 18.653954861049737)
((-20, 0, -1, 14, -1, 5, 10, 19), 1, 18.67268074595642)
((2, 3, 0, 0, 2, -1, 37, 8), 1, 18.697189406720952)
((3, -3, -3, -3, -4, -12, -36, -10), 1, 18.71961006460721)
((2, -2, 0, 19, 2, -7, 2, -5), 1, 18.738031472851688)
((-4, 0, 1, -6, 1, -3, -14, 0), 1, 18.75799864182882)
((-40, -2, 1, 6, 4, 6, 38, 21), 1, 18.776937204254235)
((3, 1, 3, 8, -3, -4, 12, 3), 1, 18.80579235489891)
((10, 4, 5, -4, 2, 11, 14, 7), 1, 18.82495043701524)
((6, -1, -1, -3, -2, 0, 2, -9), 1, 18.84373904183361)
((1, -5, -9, -29, -1, 3, 22, 6), 1, 18.863124055994057)
((-2, 0, 0, 9, 0, -2, -18, 1), 1, 18.88135844486549)
((5, -2, -3, -6, -2, 0, 9, 0), 1, 18.900420736571238)
((-7, 0, 1, -9, -3, 0, -12, 1), 1, 18.92498641543731)
((1, 4, -1, -4, -1, 9, 79, 7), 1, 18.943687212379313)
((-7, -4, -2, -5, -6, -3, 8, 2), 1, 18.963116130477943)
((-11, 0, -2, 0, -3, -4, -52, -9), 1, 18.982164737839323)
((-1, -4, -6, -6, -5, -7, -20, -7), 1, 19.00088378057382)
((0, -2, -1, 24, -3, -3, 0, 3), 1, 19.028241065691127)
((-8, -4, -2, -5, -2, -3, 5, 0), 1, 19.048810916001504)
((6, -4, -6, -12, -8, -8, -18, 2), 1, 19.06814632441361)
((0, -2, -2, -4, -1, 2, -6, -16), 1, 19.088278275704187)
((-4, -4, -4, 5, 1, -5, -6, 1), 1, 19.112567416777804)
((2, 2, 4, -10, -1, 7, 23, 13), 1, 19.133330558452393)
((1, 1, 0, 1, 1, -3, -14, 1), 1, 19.15244929807866)
((-3, -3, -3, 0, 0, -8, -15, -6), 1, 19.17222887750174)
((-2, -3, 0, -9, -1, -1, 2, -3), 1, 19.19427036501278)
((-3, -3, -1, 0, -1, -4, 13, -4), 1, 19.21962745512818)
((-4, -1, -1, -4, -4, -11, -36, -15), 1, 19.24037292119129)
((0, 0, 1, 9, 1, -2, -18, 14), 1, 19.25974254046432)
((5, -2, -2, -3, 3, 0, 0, -2), 1, 19.277994034766216)
((-2, -1, 0, 6, 1, -1, -14, -14), 1, 19.297950940485077)
((-1, -4, -7, -11, -4, -1, -4, 5), 1, 19.322119203183433)
((1, 0, 1, 1, 1, 6, 3, -3), 1, 19.340942589043745)
((-5, 2, 2, -4, 0, 1, 32, -7), 1, 19.361478798674217)
((-2, -3, -3, -8, -4, -5, -6, -2), 1, 19.380104901903206)
((-2, -3, -3, -8, -4, -5, -6, -2), 1, 19.398565082456727)
((-1, 1, -2, -1, -3, -2, 33, 16), 1, 19.4227487400425)
((2, -2, 1, 6, 3, 0, -12, 5), 1, 19.441495151465737)
((0, -4, -1, 0, -3, -5, -20, -7), 1, 19.462963036875315)
((-2, 0, -2, -4, -2, -3, -24, -12), 1, 19.482730642497074)
((-1, -1, 0, 0, 1, 2, 15, 14), 1, 19.500849854803405)
((-3, -5, -1, 1, -2, -1, -11, -6), 1, 19.522446601122457)
((-3, -5, -1, 1, -2, -1, -11, -6), 1, 19.540013878205915)
((-3, -1, -3, -2, -2, -3, -35, -3), 1, 19.560603114670815)
((2, 0, -3, 1, -2, 2, 30, 5), 1, 19.580956296195353)
((-8, -1, -2, -8, 0, 2, 12, 3), 1, 19.600442802576534)
((3, 0, -1, 8, 1, -4, -7, 17), 1, 19.6216392818228)
((-2, 2, 2, 2, 0, -4, -17, -26), 1, 19.64108872643798)
((-3, -4, -5, -6, -5, -7, -14, -5), 1, 19.660750848571897)
((-2, -2, -1, -3, -1, 2, 0, 2), 1, 19.67994428191118)
((0, 0, 2, 6, -1, -1, 2, -2), 1, 19.6978627905001)
((1, -2, 0, 5, 1, 6, 3, 5), 1, 19.71790465319025)
((2, 0, 1, 4, 0, -2, -13, -2), 1, 19.742281031959216)
((3, -4, -3, -4, -3, 2, 27, 22), 1, 19.760584982914526)
((-2, -4, -1, -7, 0, -2, -6, 1), 1, 19.779845127432605)
((-2, -1, -3, 6, 0, -4, -9, -9), 1, 19.807465836179013)
((-3, 0, 1, -3, -2, 0, 1, -3), 1, 19.8264961977479)
((-2, -4, -2, -11, -6, -4, -9, 5), 1, 19.846300865135653)
((-6, 0, -2, -1, 2, 5, -10, -1), 1, 19.865391095711157)
((-2, -4, -1, -13, -4, -5, -3, -19), 1, 19.884712819778894)
((-1, -1, 0, 4, 0, -3, 7, 7), 1, 19.905134423025277)
((-4, 0, 1, 2, -1, -3, 2, 1), 1, 19.930554233052366)
((-3, -1, -1, -4, -1, -2, 1, -4), 1, 19.951449086541505)
((-2, -2, -2, -8, -5, -2, -6, -7), 1, 19.969726238989093)
((1, -1, -1, -4, -1, -1, -7, 6), 1, 19.988644845078966)
((-1, 0, -3, -7, -1, -7, -14, -4), 1, 20.006126024829104)
((-2, 2, 4, 5, 0, -1, 1, -6), 1, 20.030077048560607)
((-1, -2, -1, 4, -2, 1, 0, 0), 1, 20.051806076875227)
((4, -2, -2, 1, -4, -4, -9, 3), 1, 20.070332968607545)
((-4, -2, -1, -1, 0, -1, -6, -1), 1, 20.089000695050657)
((-2, -2, -1, -1, -1, -1, -6, -2), 1, 20.108414788442886)
((-3, -2, -5, -8, -4, -5, 3, -5), 1, 20.13377016801524)
((-1, 0, -2, -3, -3, -5, -6, -11), 1, 20.152045039738766)
((0, -1, 1, 4, 2, 0, 2, -5), 1, 20.171563476256807)
((-5, -2, -4, -14, -5, 1, -4, -2), 1, 20.191389240342133)
((-1, -2, -3, 3, -1, -2, 0, 4), 1, 20.21142369067908)
((-1, -2, -3, 3, -1, -2, 0, 4), 1, 20.227343144628126)
((1, -1, 0, -2, 0, -1, 2, -2), 1, 20.248448394911932)
((1, -3, -1, 0, -2, -3, -6, -3), 1, 20.265680405558353)
((-1, -1, -3, -1, -1, 1, 6, 2), 1, 20.284963357317046)
((-2, 1, -4, 5, -1, -3, -8, -4), 1, 20.30413854486384)
((-1, -1, 1, -5, -3, -4, -20, -5), 1, 20.32544906031318)
((-1, -3, -3, -4, -2, 4, 14, 6), 1, 20.34854481252163)
((1, -1, 1, 3, 0, -1, -13, -3), 1, 20.36747539241283)
((-3, 0, -2, 0, -1, -1, 0, 3), 1, 20.386680799553435)
((-2, -5, -3, -2, -4, -1, -5, -3), 1, 20.409639138137184)
((-4, 0, 1, -7, -4, -2, -5, -2), 1, 20.433151122486855)
((0, -1, -1, 2, 1, 0, 1, -5), 1, 20.4542466796934)
((-1, -1, 1, 4, 0, 0, 6, 0), 1, 20.472823747355072)
((4, 0, 2, 2, 0, -1, -7, 1), 1, 20.49333087775376)
((-2, 0, -2, 17, -1, -1, -7, -9), 1, 20.513941781097245)
((-1, -3, -3, -4, -1, -1, -5, -5), 1, 20.535548790674575)
((-3, -3, -4, -14, -3, -1, 3, -3), 1, 20.557483084154725)
((-6, -2, -1, -5, 1, 5, 14, 0), 1, 20.576550507489614)
((-1, 2, 2, 7, 1, -2, -4, 2), 1, 20.597302245543894)
((-1, 2, 2, 7, 1, -2, -4, 2), 1, 20.61457987067154)
((2, 1, 0, -1, -2, 0, 4, 1), 1, 20.634350327198376)
((-3, 0, -3, -5, -3, -2, -6, 0), 1, 20.654523901703072)
((1, 0, 1, 4, 1, 0, -1, 2), 1, 20.675100594185636)
((0, 1, 0, -2, -1, 2, -2, -6), 1, 20.69478951482727)
((-3, -1, -2, -7, -3, 4, -2, 4), 1, 20.713731498338777)
((-3, -1, -2, -7, -3, 4, -2, 4), 1, 20.73267177130724)
((1, 0, 0, -2, 1, -1, 1, 2), 1, 20.75361052873456)
((-1, 1, -3, -4, -2, -3, 1, 0), 1, 20.771757109729627)
((-2, -2, -1, 7, 0, 5, -2, -1), 1, 20.793745570406237)
((-3, -7, -10, -6, -2, -10, -1, -2), 1, 20.817227335162094)
((-1, 0, 0, 4, 8, 4, 0, -1), 1, 20.83575080580832)
((-3, -4, -3, -4, -31, -4, -3, -4), 1, 20.858387562299402)
((-3, -5, -3, -4, 4, -1, -1, -2), 1, 20.877424195859458)
((1, 2, 1, 6, 21, 2, 0, 1), 1, 20.89630288927826)
((0, 1, -1, -6, -14, -4, -1, -3), 1, 20.91459942788037)
((-2, 0, -1, 0, 7, -7, -3, 1), 1, 20.933319040795883)
((-3, -4, -6, -3, -13, 1, -2, -2), 1, 20.955953516562904)
((1, -2, -1, 4, 13, 10, 3, 2), 1, 20.975635595032355)
((-1, 1, 0, 6, -12, -5, -3, -1), 1, 20.995214470738023)
((2, 0, -2, -5, 7, -1, -4, 4), 1, 21.011811869914343)
((0, 1, 1, -1, 3, -1, 1, -4), 1, 21.03156179992462)
((0, 1, 1, -1, 3, -1, 1, -4), 1, 21.05350977774914)
((-5, 0, 3, -1, 1, 4, -1, 0), 1, 21.07407107534429)
((1, -1, -3, 2, 4, 7, 0, -6), 1, 21.09353420430384)
((-2, -2, 3, 44, 15, 3, 0, -2), 1, 21.11341470576664)
((-3, -7, -8, -24, -15, -20, -4, -2), 1, 21.132941124818895)
((-1, -1, 0, -15, 0, -5, -1, 0), 1, 21.149588699924564)
((1, 2, 3, 7, 2, 5, -19, -6), 1, 21.174038632044514)
((-2, -2, 1, 27, -1, -2, 23, 3), 1, 21.19444312986044)
((0, 4, 0, -18, 1, 24, -15, -2), 1, 21.211782334537745)
((0, 4, 0, -18, 1, 24, -15, -2), 1, 21.23070607225676)
((-3, -6, -8, -20, -11, -9, 60, -2), 1, 21.249232963989076)
((-2, -4, -6, -9, 8, 2, -7, -4), 1, 21.269830182988194)
((3, -5, -9, -17, -112, -18, 10, 4), 1, 21.28961888530752)
((3, 3, 4, -3, -52, -1, 20, -66), 0, 21.310028514752577)
((42, 4, 2, 17, 127, 66, 48, 59), 0, 21.329837743588456)
((-91, -15, -21, -43, -72, -100, -19, 2), 0, 21.34927578458333)
((-22, -2, 12, 89, 127, 38, 6, -54), 0, 21.371017356880287)
((23, -9, 6, 5, -110, -26, -2, -80), 0, 21.390454257513134)
((41, -30, 8, 14, -50, 8, 15, -30), 2, 21.408760489192503)
((17, -20, -2, -32, -28, 0, 3, 14), 2, 21.426447504289186)
((13, 16, -4, -25, -121, -6, -7, 78), 2, 21.444052413319657)
((-1, 11, -3, -14, 6, -28, -8, 21), 2, 21.46732663218592)
((-10, -6, -5, -19, 21, -15, 6, -10), 2, 21.48638721334862)
((-10, -12, -10, 4, -38, 8, -13, -66), 2, 21.506072142723152)
((-2, 8, 2, -8, 21, 3, -32, -31), 2, 21.527306824097447)
((2, 2, -3, 3, -21, 4, 20, -41), 2, 21.547451889551375)
((-2, 3, 2, 1, -38, 23, 32, -47), 2, 21.5663425567715)
((-5, 4, 3, 2, -26, -3, 4, -37), 2, 21.587823556344432)
((3, 2, -3, 0, -13, 9, 21, 46), 2, 21.608815910787197)
((-6, 0, 4, 6, -39, -35, -11, 18), 2, 21.62699271137608)
((8, -3, -5, -10, 38, -10, 12, 37), 2, 21.646627464821258)
((-2, 3, 5, 6, -39, 2, 1, -66), 2, 21.66864044328153)
((-4, -6, -5, -1, 5, -5, 1, -38), 2, 21.690067845839017)
((-1, -4, -5, -4, -13, -17, 1, -19), 2, 21.71025453450707)
((-5, -3, -3, -5, 6, -4, -12, -18), 2, 21.730469732225888)
((-9, -5, -6, -4, 2, 3, -13, 3), 2, 21.752535737520592)
((7, 4, 2, -2, 11, 6, 11, 85), 2, 21.775214687406812)
((-3, 0, -2, -2, -8, -10, -5, -22), 2, 21.79850658188455)
((2, 0, 1, 0, 27, 6, -2, 9), 2, 21.821398779470517)
((2, 3, 1, 2, 32, -9, -7, 19), 2, 21.840425719953313)
((8, 5, 3, 9, -16, 8, 4, 64), 2, 21.85963454818001)
((-7, -4, -3, 4, 5, 3, -2, -10), 2, 21.881240987576327)
((-3, 0, 1, 7, 15, 0, -1, -22), 2, 21.90330300160392)
((-2, 1, -2, -8, 5, -6, -3, -55), 2, 21.92687998658934)
((-2, -3, -3, -5, -14, 1, -3, -2), 2, 21.946581451213316)
((-5, -6, -5, -5, 6, 3, -2, -10), 2, 21.967244811210215)
((0, 3, 3, 6, -20, -12, -14, -10), 2, 21.98875546019595)
((-2, -2, -2, -4, -4, -2, -2, -19), 2, 22.00880530542031)
((2, 0, 2, 0, -48, 4, 4, 8), 2, 22.029334102697582)
((0, -2, -2, -7, -18, -5, 0, 9), 2, 22.04993987441193)
((0, -2, -5, -6, -10, -2, -1, -3), 2, 22.069885946691496)
((3, 3, 3, 16, -10, 7, 3, 3), 2, 22.09502123639192)
((-5, -1, -1, 0, -10, 1, -5, -25), 2, 22.11480423690109)
((-5, 0, 0, 1, 1, 2, -3, -19), 2, 22.13339955035525)
((-5, -1, -3, 0, 32, 3, -3, -22), 2, 22.152569606272902)
((-1, -1, -1, 0, 25, 9, -2, -16), 2, 22.171570888610006)
((-1, 0, 0, 2, 11, -5, 0, 1), 2, 22.19229639833758)
((-7, -3, -1, -2, -9, -4, -4, -8), 2, 22.211074739897676)
((-10, 3, 3, 2, -2, 2, -1, -13), 2, 22.230763090358295)
((-3, -2, -4, -7, 4, -4, -8, -23), 2, 22.250778724721737)
((3, -4, -3, 4, 29, -2, -3, -9), 2, 22.27039922364153)
((12, 1, 1, 5, -8, 4, 3, 21), 2, 22.2936255473025)
((1, -1, -3, -6, -4, -1, -1, 5), 2, 22.314231319016848)
((0, -1, 0, -1, -18, -2, -4, -8), 2, 22.334363270307424)
((-5, -2, -2, -1, -7, -6, -2, -24), 2, 22.3573261703393)
((5, -2, -2, -3, -3, 1, 3, 32), 2, 22.377590973806456)
((0, -2, -2, -3, -17, 1, 4, 19), 2, 22.398575345715003)
((5, -1, -1, 0, -16, 1, 3, 16), 2, 22.415033050542554)
((0, -1, 1, -11, -47, -3, 0, -2), 2, 22.43477499801862)
((0, 1, 2, 8, -76, 10, 2, 4), 2, 22.45632099822731)
((-3, -2, -2, -2, 34, 1, -1, 3), 2, 22.476184394259647)
((-3, -3, -4, 0, 5, -1, -1, -1), 2, 22.49848759485674)
((-4, -4, -5, -8, -3, -9, -2, 2), 2, 22.516121012937976)
((1, 0, 1, -2, -8, 0, 3, -3), 2, 22.536438273058547)
((-1, -3, -6, -9, 9, -8, -7, 1), 2, 22.55291422367859)
((3, 3, 1, -1, 30, 1, 1, 8), 2, 22.572387615896417)
((3, 3, 1, -1, 30, 1, 1, 8), 2, 22.59310115182267)
((1, -2, -1, 1, -6, 4, -1, 0), 2, 22.612705115493014)
((-1, 1, 2, 1, 1, -2, 0, -9), 2, 22.631623151401875)
((5, -1, 0, 0, -19, -3, -1, 4), 2, 22.65108228909432)
((5, -1, 0, 0, -19, -3, -1, 4), 2, 22.66835079132572)
((1, -4, -2, 8, -21, 5, 0, -12), 2, 22.69063004432017)
((-3, 0, -2, 0, 25, -6, -2, 0), 2, 22.713744612502133)
((-2, -3, 0, -5, 16, 2, -2, -5), 2, 22.732402645867985)
((0, -3, -3, -4, -6, -4, 0, -2), 2, 22.75224893646986)
((-1, 0, -1, -4, 8, 1, -1, 1), 2, 22.775305346188254)
((0, 0, -2, 1, 20, -2, -1, 3), 2, 22.799618434864517)
((1, 0, -3, -3, -11, 1, 0, 0), 2, 22.824064945898375)
((3, 0, -1, -1, -1, -2, 2, 0), 2, 22.84546669031017)
((-5, 0, -2, 0, 14, 0, 1, 3), 2, 22.864645298943056)
((-5, 0, -2, 0, 14, 0, 1, 3), 2, 22.883582721006437)
((-1, -3, -2, -9, -24, -4, -2, -1), 2, 22.904489548296898)
((-1, -4, -2, -2, -3, -1, -1, -1), 2, 22.924739527057653)
((-1, -2, -1, 3, 0, 2, -3, -2), 2, 22.94827431864794)
((-1, -3, 2, 8, -4, 4, -1, -2), 2, 22.96750994538236)
((-3, -4, -6, -5, -4, -8, -1, 0), 2, 22.987639615948876)
((-1, 1, -2, -15, 3, 2, 0, 1), 2, 23.008874867504186)
((-1, 2, 0, 0, -5, -2, -3, -1), 2, 23.02767544612388)
((-2, -1, -3, -15, 2, -2, -4, -4), 2, 23.047606123516033)
((-1, 1, -1, -2, -21, -1, -1, 0), 2, 23.068989051954325)
((-1, -1, 0, 13, 1, -1, 1, -1), 2, 23.09014390798647)
((1, 0, 0, -1, -22, -3, 0, 0), 2, 23.112764129228108)
((-3, -1, -3, -7, -6, -3, -1, -2), 2, 23.132148573207537)
((-1, -1, -2, -12, 4, -2, 1, 0), 2, 23.153719091199882)
((-1, -1, -1, -15, 9, 2, -1, 0), 2, 23.17495206203113)
((0, -2, -2, 4, -13, -2, -1, -3), 2, 23.194732781816242)
((-2, -1, -5, 4, 6, -3, -3, -2), 2, 23.216307291075697)
((-1, -1, 1, 0, 4, -1, 1, -1), 2, 23.237654868291035)
((-3, -4, -6, -6, -8, -2, -4, -4), 2, 23.257911119042962)
((0, 0, 2, 9, 22, 5, -1, 0), 0, 23.276650118112997)
((-3, -3, -6, -12, -8, -6, -2, -1), 3, 23.29763905146967)
((1, 0, 3, 6, -25, 1, 0, -1), 0, 23.318674739669603)
((-2, -1, -2, 6, -10, -1, 3, -2), 0, 23.33804093785654)
((0, 0, 1, 4, -1, -5, -2, -1), 0, 23.356628838957505)
((-2, 1, 4, 15, 30, -2, 0, -2), 0, 23.373352818319233)
((-2, 1, 4, 15, 30, -2, 0, -2), 0, 23.38996846328804)
((-1, 0, 0, 0, 1, 0, -3, -4), 0, 23.410964808997914)
((-2, -5, -10, -24, -19, -6, -5, 0), 0, 23.42933775185608)
((0, 1, 5, 23, -8, 0, -6, -7), 0, 23.446283531632787)
((-2, -3, -8, -8, 6, -6, 2, -3), 0, 23.46622618282626)
((-2, -2, -3, -1, 12, -8, -9, -8), 0, 23.48516018380355)
((-2, -3, -1, 0, -15, 6, 2, 0), 0, 23.501050558520813)
((-5, -5, -12, -27, 34, -18, -9, -7), 0, 23.523470076045044)
((-17, -1, 8, -1, -94, 16, 11, 4), 0, 23.54358834299125)
((96, 11, -7, -25, -40, -7, 14, 100), 0, 23.562124357619812)
((-18, -8, -8, -9, 52, -10, -37, -87), 0, 23.578944127392123)
((-9, 3, 6, 6, 47, 7, 5, 86), 0, 23.59993762219692)
((26, -9, -10, -5, 34, -19, -4, 12), 0, 23.628946721715742)
((-39, -11, -5, -1, -5, -13, -7, -37), 3, 23.64815669030447)
((-52, -11, -5, 0, 40, 10, -13, -63), 3, 23.667170516623912)
((8, 0, 1, 1, -2, -11, -3, -56), 3, 23.687891464903363)
((24, 4, -4, 3, 61, 12, -5, -11), 3, 23.70878118676336)
((-12, -3, -3, -2, 14, 5, 4, 9), 3, 23.730327186972048)
((-14, 3, -3, -6, 25, -7, 2, 6), 3, 23.748113413565406)
((11, -4, -6, -7, -9, -8, -4, -16), 3, 23.7695744568028)
((-5, -4, -2, 1, -1, -4, -2, 3), 3, 23.789685881576823)
((-1, -4, 2, 8, 93, 16, 6, 19), 3, 23.812313515171663)
((45, 0, -5, -8, 26, -6, -9, -27), 3, 23.831994453279084)
((-7, -2, -5, -14, 43, -7, -5, -10), 3, 23.851147403766273)
((10, -3, 2, 12, -4, 1, 5, 19), 3, 23.87039671484506)
((-25, -3, -3, 0, 11, 6, 7, 19), 3, 23.890717396051723)
((5, 3, 3, 5, -13, 12, 7, 7), 3, 23.91090465490079)
((3, -3, -4, -9, 27, 2, -4, 3), 3, 23.929988043304107)
((-2, 0, -1, 1, 8, 2, -1, -6), 3, 23.948561689879686)
((4, 0, -3, 3, -13, -5, -3, 6), 3, 23.970328920322334)
((-3, -4, -4, -4, 11, -5, -3, -4), 3, 23.99050648609414)
((-5, -1, 2, -6, -39, 0, 0, -13), 3, 24.011125942152855)
((-2, 0, -2, -4, -15, -8, -4, 10), 3, 24.033256377902294)
((6, -1, 1, 5, -3, 0, -2, 1), 3, 24.05710819013712)
((0, 0, -2, 2, 23, 4, 1, 2), 3, 24.077120403414472)
((-2, -6, -4, -3, 5, -1, -1, -5), 3, 24.09603102697013)
((1, 0, 0, 1, 21, -2, -3, 5), 3, 24.114622919338203)
((-5, 0, 0, 8, 29, 5, 0, 6), 3, 24.13612786651378)
((-11, -2, -2, -5, 18, -9, -3, -5), 3, 24.155187877495468)
((-3, 1, -2, -2, -16, 0, 1, 1), 3, 24.175027896106176)
((-6, -2, -3, 1, -7, -5, 0, 0), 3, 24.195386209259855)
((-6, -2, -3, 1, -7, -5, 0, 0), 3, 24.213630861389564)
((-1, 0, -4, -1, 1, -4, -2, -1), 3, 24.235386118030892)
((7, 0, 2, 5, -39, 6, 4, 0), 3, 24.25398200166607)
((-4, -1, -4, -3, 15, -2, -5, -2), 3, 24.272574464215154)
((3, -6, -1, -1, -1, -1, -2, -2), 3, 24.294674110189764)
((-5, -1, 0, 1, -5, -3, -3, -1), 3, 24.31249226691998)
((-3, -3, -2, -3, 8, -1, -1, -3), 3, 24.33619355136675)
((-4, -4, -5, -11, -11, -4, 0, -2), 3, 24.35515264030872)
((-3, -2, -3, -1, 13, 3, -2, -1), 3, 24.37513748489733)
((-6, 0, 0, 1, 5, -1, -1, -1), 3, 24.39475570309306)
((-1, 0, 0, 5, -13, 4, 0, 0), 3, 24.415732092467394)
((2, 1, 0, 3, -13, 4, 0, 1), 3, 24.439104952649316)
((-5, -2, 1, 11, 89, 9, 0, 0), 3, 24.45944787091558)
((1, -2, -3, -7, -15, -6, -5, -2), 3, 24.477630373314618)
((-3, -1, 0, 2, 0, -3, -1, -3), 3, 24.49739341748825)
((-3, -2, -2, -4, -2, -3, -1, -1), 3, 24.51976332926414)
((1, -2, 0, 0, 1, 0, -1, -3), 3, 24.541294504766427)
((-8, -2, -3, -7, -2, -1, -1, 0), 3, 24.56078500241472)
((-1, -1, -2, 0, 3, -4, -1, -3), 3, 24.579127155498057)
((-1, -1, -2, 0, 3, -4, -1, -3), 3, 24.596909390824305)
((2, 1, 1, 2, -33, 2, 1, -1), 3, 24.616079446741956)
((-10, -2, -2, -2, 7, -6, -1, 1), 3, 24.637890010941774)
((3, -1, -2, 0, 2, -4, 0, 0), 3, 24.657106821702687)
((1, 1, 1, -1, -10, -2, -1, -3), 3, 24.676944559589334)
((-12, -3, -2, -1, 4, -3, 0, -2), 3, 24.69614255437674)
((19, -1, 1, -2, -5, 4, 1, 1), 3, 24.713710401641208)
((-15, -3, -1, -6, -10, -2, -3, -2), 3, 24.73462065001776)
((71, 5, 0, 2, -1, -3, 0, 8), 3, 24.75840118962567)
((71, 5, 0, 2, -1, -3, 0, 8), 3, 24.776282066267576)
((-7, -3, -2, -2, -5, -4, -3, -3), 3, 24.78759160670738)
((-15, -4, -3, -8, -11, -4, -3, -3), 3, 24.812191496434373)
((-4, 2, 3, 4, -11, 5, 2, 1), 3, 24.831430544254886)
((-14, -3, 0, -1, 3, 0, -1, -4), 3, 24.856319515756667)
((6, -1, -1, -1, 2, -1, -2, -1), 3, 24.8756594856169)
((-6, -4, -2, -4, -4, -6, -4, -3), 3, 24.8935141339321)
((0, -1, -5, -2, -5, -6, -1, -2), 3, 24.91294533275479)
((-3, 1, 2, 4, -2, -2, -2, -2), 3, 24.93180806110516)
((-3, 1, 2, 4, -2, -2, -2, -2), 3, 24.95155913147747)
((1, 1, 0, -6, 4, 3, 1, -1), 3, 24.972508152163066)
((-3, 0, -1, 2, -12, 1, -2, -2), 3, 24.992836815903946)
((-1, -2, -1, 0, 10, -4, 0, -1), 3, 25.01263293057647)
((2, -3, -5, -4, -5, -2, -3, -1), 3, 25.03172715241908)
((-4, 0, -2, -7, 7, -1, 0, -1), 3, 25.053825658031656)
((1, 4, 7, 27, 6, 0, 0, 7), 3, 25.073066416395214)
((-1, -4, -7, -51, -1, 4, 1, -2), 3, 25.09212414665284)
((6, 2, 13, 38, -1, -1, -2, 0), 3, 25.111480651762516)
((0, -4, -18, -20, 0, -4, -3, -3), 3, 25.130994526832435)
((-3, 6, 1, -55, 0, 5, 5, 1), 3, 25.151125907941996)
((0, -4, -10, 14, -6, -2, -1, 1), 3, 25.170394605175304)
((4, 1, 8, 61, 7, -1, -1, 0), 3, 25.18911763917691)
((3, 4, 15, 48, 8, 5, 4, 13), 3, 25.209245029019364)
((1, 0, -4, 2, -5, -3, -2, -4), 3, 25.22697594805423)
((1, 0, 0, -10, -3, 1, -3, -5), 0, 25.25155246035959)
((-4, -5, -4, 8, -3, -4, -3, -4), 0, 25.271094844480277)
((3, 3, 9, 24, -1, -4, -2, 1), 0, 25.29047415683057)
((-3, 1, 4, -10, 8, 1, 1, -6), 0, 25.30652817349924)
((-3, -4, -5, -18, -10, -8, -4, -6), 0, 25.32472550060468)
((-2, 0, 1, 2, -6, 7, 2, -3), 0, 25.343317963153762)
((0, -3, -5, -32, -7, -2, -2, 0), 0, 25.364739663901098)
((0, 2, 4, 22, 0, -25, -1, -2), 0, 25.38202698210601)
((-1, -1, -1, -4, -3, 2, 1, -4), 0, 25.40090795624887)
((0, -2, 0, 31, -7, 10, 3, 1), 1, 25.419987923566094)
((0, -1, -4, -10, 10, 10, 4, 0), 0, 25.438420165249862)
((-1, -5, -5, 8, 4, -33, 8, -1), 0, 25.461681269952773)
((-5, -5, -3, 12, -11, -68, 20, -4), 0, 25.481164925428875)
((-7, -10, -11, -9, -35, -44, 102, 7), 0, 25.50106595340823)
((6, 0, -2, -5, 43, 15, 44, 10), 0, 25.517511684434456)
((3, 0, 1, 0, -22, 12, -1, 8), 0, 25.536049979787084)
((-6, -2, -2, 0, -12, -3, -25, -43), 0, 25.55464985468937)
((-15, 2, 11, 17, 19, 53, 23, 47), 0, 25.57636519865962)
((44, -28, -21, -24, 12, -45, -26, 71), 0, 25.596106005773652)
((-54, -95, -18, -27, -68, -22, -34, 28), 0, 25.6183778464149)
((-11, -19, -8, -3, 16, -21, 4, 1), 0, 25.638411726570833)
((-16, -42, -23, -14, 50, -52, -27, -1), 3, 25.65783608322134)
((13, 11, -3, -7, -37, -2, 1, 40), 2, 25.68286075780478)
((3, 24, 3, -6, 14, -5, -6, -14), 2, 25.703148938693566)
((-9, 2, -12, -2, 63, 10, -10, -41), 2, 25.722526540500812)
((5, 5, -4, -12, -27, -21, -18, -27), 2, 25.74193208117781)
((-5, 6, -5, -3, 55, -18, -17, -9), 2, 25.761239550720166)
((-4, -1, -1, -5, 10, -32, -16, -50), 2, 25.78049342324708)
((-5, -2, -4, -10, -54, 12, 16, -15), 2, 25.806538721848025)
((3, -3, -1, -3, 5, -9, 8, -15), 2, 25.82561868916525)
((-2, 3, 0, 3, 22, 20, 32, 20), 2, 25.84387930636339)
((5, 0, 1, 2, 14, 15, 24, -2), 2, 25.863480989309675)
((3, -3, 0, -3, -5, -12, -8, 74), 2, 25.88482913670603)
((-1, -1, 0, 0, -36, -2, 0, -4), 2, 25.903923928729654)
((-2, -5, -3, 2, -28, -12, -5, -9), 2, 25.92223928330527)
((6, 0, 2, 2, 18, 10, 7, 29), 2, 25.94155872664895)
((-1, -3, -2, -9, -6, -8, -5, 5), 2, 25.96041518300815)
((3, 0, 0, 5, 14, -1, -3, 7), 2, 25.984995686580618)
((0, 0, -1, -1, 1, 8, 18, 2), 2, 26.004347060061157)
((4, 7, 15, 23, 62, 19, 10, -2), 2, 26.022946934963443)
((-3, 0, -1, 2, -9, -1, -6, -22), 2, 26.042547477547696)
((4, 0, 0, 4, -22, 2, -1, -3), 2, 26.063009563646172)
((-3, -6, -7, -12, 3, -9, -7, -1), 2, 26.087198352861083)
((-4, -2, -3, -5, -6, -6, -8, -4), 2, 26.106744158067862)
((1, 1, -1, -4, -23, -7, -3, 1), 2, 26.12540048089067)
((-5, 3, 1, 4, 4, -2, -3, -16), 2, 26.145598573179026)
((-5, 3, 1, 4, 4, -2, -3, -16), 2, 26.167383479233152)
((-2, -4, -4, -8, -15, -5, -2, 3), 2, 26.191548891026436)
((0, -2, -1, 4, 0, 1, 5, 0), 2, 26.210936185910942)
((0, 1, 3, 4, -18, 16, 1, 3), 2, 26.230223699117758)
((-3, -2, -2, -1, 9, -1, 3, 13), 2, 26.250402405251595)
((-7, 0, 1, -1, 4, 2, -6, -14), 2, 26.269274826679226)
((-2, -2, -3, -1, -9, -7, -6, -10), 2, 26.29093315254794)
((3, -1, -2, -8, -22, -10, -4, -6), 2, 26.310652862964407)
((-2, -2, -2, -3, -2, -5, -3, -4), 2, 26.329732260100613)
((0, -2, -1, -4, -9, -1, -1, -3), 2, 26.34999706356777)
((0, -1, 0, 2, 10, 1, 1, 1), 2, 26.36992431987383)
((-2, 0, 1, 0, -11, -2, 1, -1), 2, 26.393696876947523)
((-1, -1, -1, -4, -12, -10, -3, -4), 2, 26.41458089699737)
((0, 0, 0, 7, 4, 9, 5, 0), 2, 26.437038616649627)
((-3, -4, -2, -2, -2, 0, -1, -4), 2, 26.456610080002097)
((3, 0, 1, -2, -4, -1, -2, -1), 2, 26.477597302815724)
((-10, 2, 3, 3, -29, -14, -8, -19), 2, 26.502416712233632)
((1, -2, -1, -3, -21, 1, 1, -6), 2, 26.52220883563905)
((-1, -5, -4, -5, -1, -5, -5, -3), 2, 26.541145117340402)
((2, 2, 1, 0, 31, -3, -1, -12), 2, 26.560461139597987)
((1, 0, -2, -7, -1, -11, -4, -5), 2, 26.581233974349836)
((-4, -4, -4, -7, -20, -5, -4, -3), 2, 26.60235918096918)
((-1, 1, -2, 2, 8, 1, 2, 3), 2, 26.621828011738888)
((2, 0, 3, 8, -18, 7, 4, 4), 2, 26.641024866164262)
((4, 0, -3, -1, 20, -7, -4, 12), 2, 26.659243289967264)
((-3, -2, -3, -1, -13, -3, -3, -18), 2, 26.678631725213805)
((-1, -2, 0, -1, -7, -2, 0, 0), 2, 26.700285489634393)
((-1, -1, 2, -1, -2, 2, -3, 0), 2, 26.718762775618377)
((-1, 0, -1, -4, -22, -3, -3, 3), 2, 26.737509757222625)
((-3, -1, -3, 0, 15, 1, -1, -5), 2, 26.75662051431468)
((-3, 0, 0, -2, 33, -5, -1, 2), 2, 26.775511181534803)
((-1, -2, -3, -1, -1, 3, 1, -1), 2, 26.806927585300507)
((0, -1, 0, 4, 1, 1, -1, 1), 2, 26.8274164699067)
((-2, -6, -3, -7, 4, 0, -2, -3), 2, 26.850218008711227)
((1, 1, 1, 2, -24, 0, 4, 2), 2, 26.870295222624325)
((0, -1, 0, -1, -7, 1, 1, 2), 2, 26.889454445102686)
((0, -1, 0, -3, -6, 1, -1, -1), 2, 26.913969948039405)
((-1, 1, -2, 1, 60, 2, -2, 0), 2, 26.936291394428988)
((-2, 1, 3, 13, -14, 0, 0, -1), 2, 26.956225492907233)
((-2, -1, -3, -9, -22, -4, -1, -3), 2, 26.974823657266473)
((-2, -4, -6, -12, -15, -4, 1, 1), 2, 26.999060341686675)
((0, -2, 0, -7, -5, -4, -2, -2), 2, 27.01894027296846)
((-3, -22, -20, 5, -27, -2, 1, 1), 2, 27.038819634069228)
((-3, 3, -9, 3, -4, -7, -8, -6), 2, 27.058149910852197)
((1, 8, 8, -13, 6, 2, 5, 2), 2, 27.077565714787475)
((-1, 3, 8, -8, -11, -3, -3, -1), 2, 27.100839363472723)
((0, 1, 0, 23, 15, -2, -5, -2), 2, 27.121802638683704)
((2, 0, 2, -2, -11, 21, 5, 2), 2, 27.142171785276673)
((2, 0, 2, -2, -11, 21, 5, 2), 2, 27.159760729238712)
((-3, -2, -3, 0, -19, -10, -4, -1), 2, 27.179279165756753)
((0, 0, 1, 8, 8, -1, 0, -2), 2, 27.20263149942212)
((-1, -4, -4, -24, 8, -3, -2, -2), 2, 27.221352252699663)
((-4, -1, 0, 11, 59, 10, 2, 2), 2, 27.240649458983743)
((-4, -3, -6, -16, -12, -8, -2, -2), 0, 27.259531573488637)
((1, -2, -2, -3, 32, 2, -1, 0), 0, 27.280117388867442)
((0, -1, -4, -10, 20, -4, 5, 0), 0, 27.305902684925382)
((1, 0, 2, 0, -22, -5, 3, 2), 0, 27.321961263042176)
((-1, -3, 1, 13, -15, 3, 2, 0), 0, 27.339786832125593)
((1, 1, 4, 20, 35, -5, -2, -2), 0, 27.35867464844064)
((2, 1, -1, -32, -12, 0, -4, -1), 0, 27.377173601303205)
((-3, -1, -5, -30, 38, -21, -9, -2), 0, 27.39742757133107)
((1, 0, 1, 11, 31, 11, -10, -1), 0, 27.421156224466582)
((-3, -4, -4, -23, -17, -17, 12, 34), 0, 27.440781855015512)
((-6, -5, -5, -12, -48, -26, -43, -48), 3, 27.45921409669928)
((3, -8, -2, 3, 21, -1, 32, -13), 0, 27.478419503839884)
((32, 18, 15, 16, 24, 43, 69, 92), 0, 27.49776403514824)
((-73, -24, -16, -13, -32, -59, -122, -93), 0, 27.518934856248812)
((-30, -18, -16, -22, -29, -69, -119, -100), 0, 27.53856732896993)
((20, 11, 10, 7, 1, 10, 88, 59), 0, 27.55772598126727)
((35, 14, 4, -13, 9, 19, 111, 45), 0, 27.57795486333046)
((-26, -4, 0, 15, 2, -23, -89, -60), 0, 27.597805145199448)
((-2, -10, -10, -42, -9, 127, -51, -17), 0, 27.62023150489586)
((1, 4, 1, 17, 6, -100, -5, -12), 0, 27.640776267241563)
((12, 3, -6, -3, -6, -5, -21, -4), 1, 27.667278280835816)
((-8, 3, 2, 8, 1, 11, -8, 0), 1, 27.686535574448822)
((6, 0, 0, -10, 0, -19, -50, -4), 1, 27.707243408564917)
((3, 1, 1, -5, 0, -2, -3, -4), 1, 27.73224812681282)
((0, -2, -3, 14, -4, -9, -12, -3), 1, 27.75253060589145)
((17, 3, 2, 13, 3, 13, 38, -7), 1, 27.774248230585766)
((1, 0, 0, -3, -2, -1, 3, 2), 1, 27.798647986776363)
((2, -1, -2, 0, -5, -5, 3, 2), 1, 27.821902249307087)
((-11, -3, -4, -8, -4, -6, -5, 2), 1, 27.84065778362657)
((-2, -1, -2, 3, 3, 1, 53, 3), 1, 27.858983401460463)
((-3, -1, 0, 0, -2, -4, -16, 4), 1, 27.878976228583287)
((1, 1, 0, -11, 1, 5, -4, 29), 1, 27.897706674938092)
((-5, 0, 2, 16, -4, -6, 1, -3), 1, 27.91675015067033)
((-4, -2, -2, -2, -5, -7, -20, -12), 1, 27.937126139435488)
((0, -2, -2, -1, 1, 0, -7, -3), 1, 27.95579044479251)
((-2, 1, 3, 13, 2, 2, -1, 7), 1, 27.974640058979524)
((1, -1, -2, -6, 2, 2, 9, -3), 1, 27.993276425466792)
((-4, -3, -2, -1, 2, -2, -11, 3), 1, 28.01355719400238)
((-4, -3, -2, -1, 2, -2, -11, 3), 1, 28.034464591473856)
((-3, -7, -5, -5, -5, -2, 20, 1), 1, 28.054001273784387)
((4, 2, 0, 7, 0, 0, -2, 3), 1, 28.07234912867788)
((-1, -2, -2, -4, -4, -5, -21, -10), 1, 28.091904056780905)
((-3, -4, -5, -34, -8, -4, -1, 2), 1, 28.113744840574537)
((-1, -1, -2, -4, -3, -5, -8, -3), 1, 28.136070848412245)
((-1, -2, -4, 1, 1, 7, -3, 15), 1, 28.154325763800234)
((0, 0, -1, -7, -3, -3, 1, -2), 1, 28.173299107267585)
((6, 1, -4, -6, -2, 8, 13, -1), 1, 28.193584437251292)
((-2, -6, -3, -6, -2, 0, 1, -14), 1, 28.214700520974393)
((1, -1, -3, -6, -2, 0, -3, -4), 1, 28.239598615372422)
((0, 2, 0, 2, 1, 1, 8, -8), 1, 28.259263588411415)
((-4, -2, -2, -10, -2, -4, -10, 0), 1, 28.279110449194306)
((-4, -5, -3, 1, -3, -4, 0, 7), 1, 28.29938152465263)
((-5, 0, 0, 8, -1, -4, 0, -3), 1, 28.31885491687046)
((-5, -6, -3, -8, -3, -1, -2, -1), 1, 28.340083326253584)
((-3, 2, -1, 8, -2, 0, -16, -3), 1, 28.359558999195475)
((-1, -1, -3, -5, -2, -3, -13, -6), 1, 28.37970463483042)
((-2, -1, -3, -18, -8, -4, -10, -1), 1, 28.39800117343253)
((-2, 1, 3, 5, 0, 0, -3, -14), 1, 28.418475233332327)
((0, -1, 3, 17, 5, 0, -1, 12), 1, 28.4391488565875)
((-1, -2, -2, -7, -1, -3, -11, -5), 1, 28.4590219456971)
((0, 0, 2, -3, 1, 1, -3, -6), 1, 28.48352889591859)
((0, 0, -2, -4, -3, -1, -4, -9), 1, 28.503831901513774)
((-2, -1, -1, -6, -2, -1, 7, -6), 1, 28.52304586136961)
((4, 3, 0, 4, 5, 9, 27, 5), 1, 28.54557086238168)
((-2, 0, 1, 6, -3, -5, 2, -7), 1, 28.567071248109137)
((0, 0, 0, 4, -1, 0, -8, -13), 1, 28.58585871256548)
((0, -3, -2, -3, -2, -3, 11, 1), 1, 28.60504074228445)
((-1, -1, -4, 2, -1, -4, -5, -4), 1, 28.624896155782576)
((-1, -4, -3, 3, -4, -2, -1, -5), 1, 28.646770010075098)
((-1, -1, -2, -8, -1, -1, -3, 2), 1, 28.666128795908836)
((0, -4, -2, -1, -2, -5, -3, -5), 1, 28.684868365159886)
((-2, -2, -2, -3, -3, -3, -4, 0), 1, 28.704390792945038)
((1, -1, -3, 0, 0, -1, 5, 3), 1, 28.723162292332947)
((-3, 0, 0, -2, -1, -1, -3, -13), 1, 28.745167288259005)
((-1, -2, -2, -3, 0, -3, -6, -2), 1, 28.763788259858856)
((0, -3, 0, -10, -1, 1, -4, 4), 1, 28.781996420403587)
((-1, -1, -2, -2, -1, 0, 20, -4), 1, 28.810888062633243)
((-4, -2, 0, -1, -3, -3, 15, 9), 1, 28.830558737482388)
((3, -1, -2, -3, -2, -2, -1, -1), 1, 28.852742200066256)
((0, -1, -3, 4, -1, 3, -2, 3), 1, 28.872043397617443)
