(None, 0, 5.701810153669486e-07)
(None, 0, 0.006946515310215534)
(None, 0, 0.02011655640316131)
(None, 0, 0.029705290538587285)
(None, 0, 0.03594364102771707)
(None, 0, 0.04006661994983547)
(None, 0, 0.04473469192264468)
(None, 0, 0.04846880739228283)
(None, 0, 0.05364662119283009)
(None, 0, 0.057829469121562026)
(None, 0, 0.06339329546951271)
(None, 0, 0.06775860132316207)
(None, 0, 0.07277505389636048)
(None, 0, 0.07665570588694792)
(None, 0, 0.08198062638945987)
(None, 0, 0.0882680124459112)
(None, 0, 0.09274849486466469)
(None, 0, 0.09776551761887846)
(None, 0, 0.10476277903946166)
(None, 0, 0.1095716857230665)
(None, 0, 0.11540520769128575)
(None, 0, 0.12503100359271058)
(None, 0, 0.13102873769335552)
(None, 0, 0.1347326335691792)
(None, 0, 0.13937219649122007)
(None, 0, 0.14293639801827887)
(None, 0, 0.1476694706268399)
(None, 0, 0.15117893477642347)
(None, 0, 0.15691495579101497)
(None, 0, 0.16143877196693635)
(None, 0, 0.166685577670343)
(None, 0, 0.17072873125031005)
(None, 0, 0.17527364412379998)
(None, 0, 0.17954429992889842)
(None, 0, 0.18410631823284937)
(None, 0, 0.18913759551244733)
(None, 0, 0.1937064559885827)
(None, 0, 0.19781461020430155)
(None, 0, 0.20257619186363093)
(None, 0, 0.20728075542142363)
(None, 0, 0.21475012672273067)
(None, 0, 0.21906012501788943)
(None, 0, 0.22690239470324644)
(None, 0, 0.23354899479937896)
(None, 0, 0.23775807105481778)
(None, 0, 0.2438111127139533)
(None, 0, 0.24889142556087282)
(None, 0, 0.25341980318491714)
(None, 0, 0.25904748980658887)
(None, 0, 0.2645953510861093)
(None, 0, 0.26922978237901185)
(None, 0, 0.27371824733198047)
(None, 0, 0.28083467658477534)
(None, 0, 0.2845265986592764)
(None, 0, 0.28926594325900645)
(None, 0, 0.2957950860659734)
(None, 0, 0.29984565199914015)
(None, 0, 0.3034680119897664)
(None, 0, 0.30847477148570357)
(None, 0, 0.31645388461474866)
(None, 0, 0.3215849435720358)
(None, 0, 0.3331231265990014)
(None, 0, 0.33708474429377094)
(None, 0, 0.34087929895103797)
(None, 0, 0.34567224056621254)
(None, 0, 0.3493293815987762)
(None, 0, 0.35466684608362614)
(None, 0, 0.35834736453781985)
(None, 0, 0.3629327602634008)
(None, 0, 0.3663492849074796)
(None, 0, 0.3706986256926987)
(None, 0, 0.37401479847807284)
(None, 0, 0.38030845652569323)
(None, 0, 0.38557635892666847)
(None, 0, 0.3902507028906467)
(None, 0, 0.39454644666042127)
(None, 0, 0.4010088782885903)
(None, 0, 0.40582804823047175)
(None, 0, 0.41105831868443277)
(None, 0, 0.4168690334120373)
(None, 0, 0.42381554872225286)
(None, 0, 0.4335012136302912)
(None, 0, 0.4395844748832412)
(None, 0, 0.44574014912514276)
(None, 0, 0.45165463679754414)
(None, 0, 0.45744653555164155)
(None, 0, 0.4616345151095118)
(None, 0, 0.4678608917973189)
(None, 0, 0.4729548889886072)
(None, 0, 0.476891988899716)
(None, 0, 0.4828155994683632)
(None, 0, 0.4873126171365623)
(None, 0, 0.4918689336303596)
(None, 0, 0.4961424403405349)
(None, 0, 0.501983374661954)
(None, 0, 0.5056496385907634)
(None, 0, 0.5108092065988189)
(None, 0, 0.5147805173708497)
(None, 0, 0.5220104126457026)
(None, 0, 0.5288343390376142)
(None, 0, 0.5363681407936578)
(None, 0, 0.5399802375260074)
(None, 0, 0.545107305216187)
(None, 0, 0.5489041405975155)
(None, 0, 0.5545859944156472)
(None, 0, 0.5581963806049507)
(None, 0, 0.5637733211162548)
(None, 0, 0.5677657285858542)
(None, 0, 0.5727491106601613)
(None, 0, 0.5791243045929791)
(None, 0, 0.5837159723097292)
(None, 0, 0.5882848327858645)
(None, 0, 0.5933765492530914)
(None, 0, 0.5991256844310363)
(None, 0, 0.6041016541521437)
(None, 0, 0.6089710000233775)
(None, 0, 0.6136293789189254)
(None, 0, 0.61971206999086)
(None, 0, 0.6250951489569394)
(None, 0, 0.6321745164437353)
(None, 0, 0.640648546694119)
(None, 0, 0.6462557067992376)
(None, 0, 0.6502076314167459)
(None, 0, 0.6538972727671853)
(None, 0, 0.6602502296404039)
(None, 0, 0.6653436566506769)
(None, 0, 0.668869656049706)
(None, 0, 0.6725005687555629)
(None, 0, 0.6781282553772346)
(None, 0, 0.681848686502504)
(None, 0, 0.6862584664753519)
(None, 0, 0.6909162751898845)
(None, 0, 0.698173539153475)
(None, 0, 0.7021345866672293)
(None, 0, 0.7073557342249444)
(None, 0, 0.7148593163871735)
(None, 0, 0.7221542122977782)
(None, 0, 0.7341622244814061)
(None, 0, 0.7420330032175315)
(None, 0, 0.7494362335210559)
(None, 0, 0.7531937264123241)
((59, 110, 176, 409, 376, 154, 184, 63), 0, 0.7569084557274398)
((59, 110, 176, 409, 376, 154, 184, 63), 0, 0.7634096596646537)
((59, 110, 176, 409, 376, 154, 184, 63), 0, 0.7678348345249166)
((59, 110, 176, 409, 376, 154, 184, 63), 0, 0.7716316699062451)
((59, 110, 176, 409, 376, 154, 184, 63), 0, 0.7777058082629492)
((50, 88, 137, 249, 263, 124, 189, 51), 0, 0.7827747174895614)
((50, 88, 137, 249, 263, 124, 189, 51), 0, 0.7882079723849931)
((50, 88, 137, 249, 263, 124, 189, 51), 0, 0.7921302475897023)
((50, 88, 137, 249, 263, 124, 189, 51), 0, 0.7992831684274807)
((45, 72, 87, 205, 159, 108, 164, 50), 0, 0.8034437792966133)
((45, 72, 87, 205, 159, 108, 164, 50), 0, 0.8076750926116514)
((45, 72, 87, 205, 159, 108, 164, 50), 0, 0.8151467446370199)
((34, 49, 70, 176, 152, 85, 157, 44), 0, 0.819701350587771)
((34, 49, 70, 176, 152, 85, 157, 44), 0, 0.8243141150020897)
((34, 49, 70, 176, 152, 85, 157, 44), 0, 0.8344582054464831)
((34, 49, 70, 176, 152, 85, 157, 44), 0, 0.839995803467727)
((30, 44, 65, 175, 174, 79, 155, 39), 0, 0.849789802768685)
((30, 44, 65, 175, 174, 79, 155, 39), 0, 0.8549550725868942)
((30, 44, 65, 175, 174, 79, 155, 39), 0, 0.8586407226702261)
((31, 45, 61, 173, 165, 66, 114, 31), 0, 0.8642256457157453)
((31, 45, 61, 173, 165, 66, 114, 31), 0, 0.869144597335316)
((31, 45, 61, 173, 165, 66, 114, 31), 0, 0.8749878123807965)
((27, 42, 63, 370, 188, 64, 102, 33), 0, 0.8804370323446584)
((27, 42, 63, 370, 188, 64, 102, 33), 0, 0.8851997543660186)
((27, 42, 63, 370, 188, 64, 102, 33), 0, 0.8899641869304248)
((27, 42, 63, 370, 188, 64, 102, 33), 0, 0.8956106895256037)
((36, 64, 70, 394, 213, 61, 94, 34), 0, 0.9024180806680697)
((36, 64, 70, 394, 213, 61, 94, 34), 0, 0.9064264532060994)
((36, 64, 70, 394, 213, 61, 94, 34), 0, 0.9121476495142913)
((36, 64, 70, 394, 213, 61, 94, 34), 0, 0.918214945698811)
((36, 64, 70, 394, 213, 61, 94, 34), 0, 0.9231230638790897)
((36, 64, 70, 394, 213, 61, 94, 34), 0, 0.9286543899091645)
((36, 71, 71, 422, 173, 55, 169, 32), 0, 0.9423421553640634)
((36, 71, 71, 422, 173, 55, 169, 32), 0, 0.9471504918666529)
((36, 71, 71, 422, 173, 55, 169, 32), 0, 0.9514251389388589)
((36, 71, 71, 422, 173, 55, 169, 32), 0, 0.9569826932956406)
((37, 69, 69, 419, 180, 53, 172, 32), 0, 0.9636406970120804)
((37, 69, 69, 419, 180, 53, 172, 32), 0, 0.9681092056295112)
((37, 69, 69, 419, 180, 53, 172, 32), 0, 0.9735726801187573)
((37, 69, 69, 419, 180, 53, 172, 32), 0, 0.9779157489128073)
((37, 67, 61, 255, 156, 50, 173, 30), 0, 0.9826801814772136)
((37, 67, 61, 255, 156, 50, 173, 30), 0, 0.9878129509775468)
((37, 67, 61, 255, 156, 50, 173, 30), 0, 0.9922079062439952)
((37, 67, 61, 255, 156, 50, 173, 30), 0, 0.9963343062522059)
((37, 67, 61, 255, 156, 50, 173, 30), 0, 1.0023474352402657)
((30, 49, 65, 365, 197, 57, 178, 28), 0, 1.010819184766588)
((30, 49, 65, 365, 197, 57, 178, 28), 0, 1.0162946330571567)
((32, 46, 62, 384, 198, 56, 166, 28), 0, 1.0223277183807544)
((32, 46, 62, 384, 198, 56, 166, 28), 0, 1.0280700113865149)
((32, 46, 62, 384, 198, 56, 166, 28), 0, 1.0330357178493457)
((32, 46, 62, 384, 198, 56, 166, 28), 0, 1.0403802195082872)
((30, 41, 61, 364, 194, 55, 108, 27), 0, 1.0497785131845807)
((30, 41, 61, 364, 194, 55, 108, 27), 0, 1.054780711232395)
((28, 38, 62, 367, 186, 53, 116, 30), 0, 1.0596751450683048)
((28, 38, 62, 367, 186, 53, 116, 30), 0, 1.0651488828158275)
((28, 38, 62, 367, 186, 53, 116, 30), 0, 1.0688915510006962)
((28, 38, 62, 367, 186, 53, 116, 30), 0, 1.0748881447393104)
((35, 39, 66, 372, 185, 57, 120, 33), 0, 1.080173722751762)
((35, 39, 66, 372, 185, 57, 120, 33), 0, 1.0846120117753784)
((35, 39, 66, 372, 185, 57, 120, 33), 0, 1.0892612677746805)
((35, 39, 66, 372, 185, 57, 120, 33), 0, 1.0949562357561655)
((35, 39, 66, 372, 185, 57, 120, 33), 0, 1.098751360594448)
((35, 48, 62, 225, 126, 47, 135, 36), 0, 1.1040762810969598)
((35, 48, 62, 225, 126, 47, 135, 36), 0, 1.1112485880892606)
((35, 48, 62, 225, 126, 47, 135, 36), 0, 1.1165951754703565)
((38, 50, 73, 187, 120, 49, 132, 36), 0, 1.1221099662509857)
((38, 50, 73, 187, 120, 49, 132, 36), 0, 1.1290713062676008)
((38, 50, 73, 187, 120, 49, 132, 36), 0, 1.13602352338797)
((40, 59, 106, 252, 146, 48, 122, 38), 0, 1.1454737035366618)
((40, 59, 106, 252, 146, 48, 122, 38), 0, 1.152026793946274)
((40, 59, 106, 252, 146, 48, 122, 38), 0, 1.1556246361532396)
((40, 59, 106, 252, 146, 48, 122, 38), 0, 1.162608213229454)
((43, 63, 107, 250, 147, 56, 147, 38), 0, 1.1668731672243988)
((43, 63, 107, 250, 147, 56, 147, 38), 0, 1.1714283433561652)
((43, 63, 107, 250, 147, 56, 147, 38), 0, 1.1754007944902267)
((43, 64, 112, 254, 149, 52, 148, 36), 0, 1.1822446772176762)
((43, 64, 112, 254, 149, 52, 148, 36), 0, 1.186007871919098)
((43, 64, 112, 254, 149, 52, 148, 36), 0, 1.190838445481287)
((43, 64, 112, 254, 149, 52, 148, 36), 0, 1.198667030822275)
((46, 66, 121, 273, 143, 50, 129, 34), 0, 1.2035483504948317)
((46, 66, 121, 273, 143, 50, 129, 34), 0, 1.2099640272797405)
((46, 66, 121, 273, 143, 50, 129, 34), 0, 1.2163181245149899)
((46, 66, 121, 273, 143, 50, 129, 34), 0, 1.2203641290000335)
((48, 73, 119, 281, 176, 50, 167, 33), 0, 1.225588697643841)
((48, 73, 119, 281, 176, 50, 167, 33), 0, 1.234596417324608)
((49, 74, 105, 327, 173, 53, 210, 30), 0, 1.240182480732158)
((49, 74, 105, 327, 173, 53, 210, 30), 0, 1.247336541931967)
((49, 74, 105, 327, 173, 53, 210, 30), 0, 1.2544598133569465)
((49, 74, 105, 327, 173, 53, 210, 30), 0, 1.2584014747161782)
((47, 75, 107, 338, 176, 49, 189, 29), 0, 1.264997328701943)
((47, 75, 107, 338, 176, 49, 189, 29), 0, 1.2693586432884847)
((47, 75, 107, 338, 176, 49, 189, 29), 0, 1.2742787352700862)
((47, 75, 107, 338, 176, 49, 189, 29), 0, 1.2783686436933133)
((42, 74, 114, 366, 200, 54, 187, 28), 0, 1.2851161658291659)
((42, 74, 114, 366, 200, 54, 187, 28), 0, 1.2896325696518873)
((42, 74, 114, 366, 200, 54, 187, 28), 0, 1.2953577572271868)
((45, 78, 132, 373, 206, 54, 197, 28), 0, 1.3012853590629416)
((45, 78, 132, 373, 206, 54, 197, 28), 0, 1.3050645188327938)
((45, 78, 132, 373, 206, 54, 197, 28), 0, 1.3103227281565077)
((45, 78, 132, 373, 206, 54, 197, 28), 0, 1.3149645718026102)
((40, 69, 127, 379, 189, 53, 165, 27), 0, 1.321174983421987)
((40, 69, 127, 379, 189, 53, 165, 27), 0, 1.325252347862876)
((40, 69, 127, 379, 189, 53, 165, 27), 0, 1.3322792586962584)
((40, 69, 127, 379, 189, 53, 165, 27), 0, 1.3367038633755057)
((40, 69, 127, 379, 189, 53, 165, 27), 0, 1.3432951559131479)
((40, 69, 127, 379, 189, 53, 165, 27), 0, 1.3500717572807839)
((41, 70, 129, 317, 219, 63, 108, 27), 0, 1.3606731328995016)
((41, 70, 129, 317, 219, 63, 108, 27), 0, 1.3646039608194414)
((46, 80, 175, 324, 220, 67, 98, 30), 0, 1.3704511671320294)
((46, 80, 175, 324, 220, 67, 98, 30), 0, 1.3763599529942772)
((52, 84, 174, 319, 214, 72, 91, 32), 0, 1.380294202000309)
((52, 84, 174, 319, 214, 72, 91, 32), 0, 1.3842495477039096)
((52, 84, 174, 319, 214, 72, 91, 32), 0, 1.3914914167800851)
((52, 84, 174, 319, 214, 72, 91, 32), 0, 1.3968323023510274)
((52, 84, 174, 319, 214, 72, 91, 32), 0, 1.4009530005490842)
((47, 79, 164, 351, 233, 93, 78, 32), 0, 1.4073207821287024)
((47, 79, 164, 351, 233, 93, 78, 32), 0, 1.414587739169554)
((47, 79, 164, 351, 233, 93, 78, 32), 0, 1.418861816060745)
((47, 79, 164, 351, 233, 93, 78, 32), 0, 1.4257222340376399)
((47, 79, 164, 351, 233, 93, 78, 32), 0, 1.4310864970302122)
((51, 88, 166, 331, 227, 100, 76, 35), 0, 1.4387645545831436)
((44, 74, 119, 328, 219, 96, 91, 30), 0, 1.4630987399569741)
((44, 74, 119, 328, 219, 96, 91, 30), 0, 1.4672399646715844)
((44, 74, 119, 328, 219, 96, 91, 30), 0, 1.4732559445647209)
((44, 74, 119, 328, 219, 96, 91, 30), 0, 1.4774861175177283)
((44, 74, 119, 328, 219, 96, 91, 30), 0, 1.482392525154961)
((43, 71, 113, 312, 214, 92, 94, 30), 0, 1.4865200655252022)
((43, 71, 113, 312, 214, 92, 94, 30), 0, 1.493462019387295)
((43, 71, 113, 312, 214, 92, 94, 30), 0, 1.4973791629628659)
((43, 69, 95, 250, 176, 69, 108, 30), 0, 1.502662460251256)
((43, 69, 95, 250, 176, 69, 108, 30), 0, 1.5076772022814082)
((43, 69, 95, 250, 176, 69, 108, 30), 0, 1.513826604532141)
((43, 69, 95, 250, 176, 69, 108, 30), 0, 1.5184473514806747)
((42, 71, 111, 310, 188, 62, 131, 29), 0, 1.524919476186105)
((42, 71, 111, 310, 188, 62, 131, 29), 0, 1.5333860940832886)
((42, 71, 111, 310, 188, 62, 131, 29), 0, 1.5386699615526942)
((42, 71, 111, 310, 188, 62, 131, 29), 0, 1.5450223482448973)
((42, 71, 111, 310, 188, 62, 131, 29), 0, 1.5508980636082537)
((41, 75, 112, 312, 201, 64, 135, 28), 0, 1.5618512409134528)
((41, 75, 112, 312, 201, 64, 135, 28), 0, 1.5665683484535835)
((46, 74, 112, 315, 255, 68, 125, 30), 0, 1.5718790144307113)
((46, 74, 112, 315, 255, 68, 125, 30), 0, 1.5803490534139872)
((43, 74, 113, 302, 260, 64, 121, 28), 0, 1.5853444092896172)
((43, 74, 113, 302, 260, 64, 121, 28), 0, 1.5908187172181552)
((43, 74, 113, 302, 260, 64, 121, 28), 0, 1.5976107134732063)
((43, 74, 113, 302, 260, 64, 121, 28), 0, 1.6013265831503527)
((43, 84, 153, 344, 358, 74, 113, 29), 0, 1.605940487926702)
((43, 84, 153, 344, 358, 74, 113, 29), 0, 1.6104568917494237)
((43, 84, 153, 344, 358, 74, 113, 29), 0, 1.6173669154746557)
((52, 101, 168, 367, 463, 87, 82, 31), 0, 1.6214579642599136)
((52, 101, 168, 367, 463, 87, 82, 31), 0, 1.626929421283375)
((52, 101, 168, 367, 463, 87, 82, 31), 0, 1.6312781918875785)
((52, 101, 168, 367, 463, 87, 82, 31), 0, 1.635833368019345)
((52, 101, 168, 367, 463, 87, 82, 31), 0, 1.6393234460144062)
((52, 101, 168, 367, 463, 87, 82, 31), 0, 1.6452955219693597)
((52, 99, 166, 335, 456, 89, 70, 33), 0, 1.6536646389129157)
((52, 99, 166, 335, 456, 89, 70, 33), 0, 1.662879334302261)
((49, 98, 168, 335, 425, 82, 94, 31), 0, 1.6669527074760424)
((49, 98, 168, 335, 425, 82, 94, 31), 0, 1.6718055180978306)
((49, 98, 168, 335, 425, 82, 94, 31), 0, 1.6771338596864347)
((49, 98, 168, 335, 425, 82, 94, 31), 0, 1.6825796585642043)
((49, 98, 168, 335, 425, 82, 94, 31), 0, 1.6864614509168225)
((49, 98, 167, 334, 418, 83, 96, 33), 0, 1.692293832523011)
((49, 98, 167, 334, 418, 83, 96, 33), 0, 1.6968364646724396)
((47, 87, 133, 310, 336, 76, 82, 34), 0, 1.7023689310645451)
((47, 87, 133, 310, 336, 76, 82, 34), 0, 1.7065956829314604)
((47, 87, 133, 310, 336, 76, 82, 34), 0, 1.7118858223920348)
((47, 87, 133, 310, 336, 76, 82, 34), 0, 1.7189332597419702)
((47, 87, 133, 310, 336, 76, 82, 34), 0, 1.7228412804212954)
((35, 55, 103, 303, 248, 80, 84, 31), 0, 1.7280316382041807)
((35, 55, 103, 303, 248, 80, 84, 31), 0, 1.7336553335587448)
((35, 55, 103, 303, 248, 80, 84, 31), 0, 1.7387099882599728)
((35, 55, 103, 303, 248, 80, 84, 31), 0, 1.7429823546081173)
((39, 62, 97, 301, 243, 74, 83, 36), 0, 1.7485079788280384)
((39, 62, 97, 301, 243, 74, 83, 36), 0, 1.7528328018295969)
((39, 62, 97, 301, 243, 74, 83, 36), 0, 1.7597126059610144)
((40, 69, 95, 331, 242, 74, 83, 35), 0, 1.7692637081494262)
((40, 69, 95, 331, 242, 74, 83, 35), 0, 1.7732144924049038)
((40, 69, 95, 331, 242, 74, 83, 35), 0, 1.778403139644743)
((40, 69, 95, 331, 242, 74, 83, 35), 0, 1.7826384442268888)
((40, 69, 97, 339, 247, 80, 88, 37), 0, 1.7894977218417532)
((40, 69, 97, 339, 247, 80, 88, 37), 0, 1.7938698698675868)
((40, 69, 97, 339, 247, 80, 88, 37), 0, 1.7982294739110825)
((40, 69, 97, 339, 247, 80, 88, 37), 0, 1.8042790944841258)
((44, 74, 103, 340, 262, 87, 89, 37), 0, 1.8094888384215337)
((44, 74, 103, 340, 262, 87, 89, 37), 0, 1.8141095853700675)
((44, 74, 103, 340, 262, 87, 89, 37), 0, 1.8198199482389674)
((52, 83, 103, 334, 181, 77, 90, 40), 0, 1.8273377849265806)
((52, 83, 103, 334, 181, 77, 90, 40), 0, 1.8317304594689676)
((52, 83, 103, 334, 181, 77, 90, 40), 0, 1.836035326134988)
((52, 83, 103, 334, 181, 77, 90, 40), 0, 1.8410289714675718)
((52, 83, 103, 334, 181, 77, 90, 40), 0, 1.846447401656604)
((49, 77, 97, 328, 226, 79, 90, 37), 0, 1.8544396289490024)
((49, 77, 97, 328, 226, 79, 90, 37), 0, 1.8646886327002234)
((53, 72, 96, 319, 230, 89, 80, 39), 0, 1.8711653188537765)
((53, 72, 96, 319, 230, 89, 80, 39), 0, 1.8763437028353391)
((53, 72, 96, 319, 230, 89, 80, 39), 0, 1.8816823076822198)
((54, 77, 93, 329, 269, 91, 74, 37), 0, 1.8873225382862298)
((54, 77, 93, 329, 269, 91, 74, 37), 0, 1.8917904767226452)
((54, 77, 93, 329, 269, 91, 74, 37), 0, 1.895508627123853)
((54, 77, 93, 329, 269, 91, 74, 37), 0, 1.900838109074488)
((62, 74, 86, 329, 291, 86, 71, 41), 0, 1.9056840775240915)
((62, 74, 86, 329, 291, 86, 71, 41), 0, 1.9121088772052464)
((62, 74, 86, 329, 291, 86, 71, 41), 0, 1.9177166074913803)
((62, 74, 86, 329, 291, 86, 71, 41), 0, 1.921776296320793)
((57, 63, 73, 295, 362, 81, 70, 39), 0, 1.93006159665509)
((57, 63, 73, 295, 362, 81, 70, 39), 0, 1.9339011956125711)
((57, 63, 73, 295, 362, 81, 70, 39), 0, 1.9397369983048518)
((57, 63, 73, 295, 362, 81, 70, 39), 0, 1.946552371981533)
((57, 63, 73, 295, 362, 81, 70, 39), 0, 1.9507357900912803)
((57, 63, 73, 295, 362, 81, 70, 39), 0, 1.9554050024261203)
((57, 63, 73, 295, 362, 81, 70, 39), 0, 1.9657720336475222)
((93, 71, 74, 366, 345, 88, 121, 52), 0, 1.970595194856511)
((103, 88, 80, 359, 365, 133, 266, 71), 0, 1.980036252108957)
((103, 88, 80, 359, 365, 133, 266, 71), 0, 1.9850384501567713)
((111, 90, 79, 370, 367, 190, 371, 92), 0, 1.9889470410171117)
((111, 90, 79, 370, 367, 190, 371, 92), 0, 1.9958644770955436)
((111, 90, 79, 370, 367, 190, 371, 92), 0, 1.999552407902937)
((111, 90, 79, 370, 367, 190, 371, 92), 0, 2.0042535503746373)
((111, 90, 79, 370, 367, 190, 371, 92), 0, 2.0097198757689605)
((111, 92, 80, 356, 367, 211, 409, 100), 0, 2.015808838832064)
((111, 92, 80, 356, 367, 211, 409, 100), 0, 2.0212899889327867)
((120, 103, 87, 332, 396, 276, 485, 125), 0, 2.0267471914308635)
((120, 103, 87, 332, 396, 276, 485, 125), 0, 2.032020225460977)
((120, 103, 87, 332, 396, 276, 485, 125), 0, 2.0358079379460596)
((120, 103, 87, 332, 396, 276, 485, 125), 0, 2.0412354910313377)
((137, 131, 113, 261, 441, 465, 640, 219), 0, 2.049663906800492)
((137, 131, 113, 261, 441, 465, 640, 219), 0, 2.0537965787998718)
((137, 131, 113, 261, 441, 465, 640, 219), 0, 2.0615162595669245)
((137, 131, 113, 261, 441, 465, 640, 219), 0, 2.0733737439624957)
((234, 187, 132, 255, 505, 755, 901, 417), 0, 2.0884949444900274)
((281, 235, 162, 249, 588, 1023, 981, 524), 0, 2.0946141271469454)
((311, 240, 164, 260, 591, 1034, 1097, 542), 0, 2.116624824883156)
((311, 240, 164, 260, 591, 1034, 1097, 542), 0, 2.125728334974504)
((328, 250, 199, 290, 576, 1151, 1197, 574), 3, 2.140444706981125)
((324, 243, 193, 343, 580, 1179, 1254, 556), 3, 2.154309228550788)
((324, 243, 193, 343, 580, 1179, 1254, 556), 3, 2.16457533773247)
((261, 200, 193, 360, 517, 1031, 1133, 430), 3, 2.181732654665877)
((261, 200, 193, 360, 517, 1031, 1133, 430), 0, 2.1880548217642657)
((261, 200, 193, 360, 517, 1031, 1133, 430), 1, 2.1959198986902373)
((246, 158, 181, 345, 410, 948, 1076, 397), 1, 2.209660690979565)
((268, 197, 220, 373, 475, 1055, 972, 451), 1, 2.2254575560103067)
((261, 191, 207, 419, 429, 919, 878, 420), 1, 2.2372603030284024)
((261, 191, 207, 419, 429, 919, 878, 420), 1, 2.2481638745852646)
((338, 188, 204, 389, 420, 870, 691, 408), 1, 2.264047977311357)
((390, 184, 192, 373, 453, 888, 588, 412), 1, 2.2782711427396856)
((379, 170, 184, 361, 448, 699, 559, 323), 1, 2.290316786870328)
((379, 170, 184, 361, 448, 699, 559, 323), 1, 2.303962929111105)
((354, 115, 149, 338, 365, 522, 520, 216), 1, 2.3153579967032134)
((342, 94, 115, 239, 354, 524, 420, 184), 1, 2.330686172939323)
((342, 94, 115, 239, 354, 524, 420, 184), 1, 2.3379092260419916)
((260, 78, 114, 224, 308, 410, 415, 205), 1, 2.351468700768433)
((260, 78, 114, 224, 308, 410, 415, 205), 1, 2.3659307720422)
((178, 80, 116, 234, 239, 346, 397, 197), 1, 2.3849628441541335)
((147, 71, 111, 256, 255, 321, 374, 169), 1, 2.395374349494734)
((111, 67, 89, 230, 241, 296, 365, 144), 1, 2.410679718490229)
((111, 67, 89, 230, 241, 296, 365, 144), 1, 2.42349225608654)
((105, 65, 92, 235, 291, 280, 336, 145), 1, 2.444370004145216)
((83, 60, 91, 223, 278, 294, 364, 99), 1, 2.460283186103092)
((83, 60, 91, 223, 278, 294, 364, 99), 1, 2.47179400044132)
((57, 54, 82, 197, 278, 268, 368, 84), 1, 2.489892116050082)
((63, 61, 82, 168, 240, 250, 366, 82), 1, 2.5055190671382443)
((54, 58, 88, 169, 225, 232, 401, 76), 1, 2.517427297644183)
((52, 58, 87, 171, 132, 225, 411, 67), 1, 2.529304738375292)
((52, 58, 87, 171, 132, 225, 411, 67), 1, 2.5393268100823967)
((52, 58, 87, 171, 132, 225, 411, 67), 1, 2.548008386222374)
((54, 58, 79, 159, 103, 203, 373, 58), 1, 2.5620279970282165)
((56, 65, 87, 178, 83, 202, 347, 55), 1, 2.5775882369375807)
((56, 65, 87, 178, 83, 202, 347, 55), 1, 2.5914282407235825)
((48, 54, 91, 218, 116, 209, 380, 61), 1, 2.5982812463472778)
((47, 48, 79, 206, 134, 209, 391, 60), 1, 2.612949152967593)
((47, 48, 79, 206, 134, 209, 391, 60), 1, 2.621371866926593)
((52, 52, 90, 223, 144, 200, 393, 64), 1, 2.6335247050881243)
((52, 52, 90, 223, 144, 200, 393, 64), 1, 2.6436921729541476)
((58, 56, 94, 233, 150, 214, 418, 68), 1, 2.659302588792864)
((58, 56, 94, 233, 150, 214, 418, 68), 1, 2.667278280835817)
((54, 54, 90, 230, 151, 220, 447, 69), 1, 2.6792908544675678)
((54, 54, 86, 197, 129, 211, 391, 60), 1, 2.6976923063765055)
((60, 58, 96, 211, 115, 219, 397, 64), 1, 2.712047183619384)
((60, 58, 96, 211, 115, 219, 397, 64), 1, 2.729348186168663)
((55, 57, 105, 189, 98, 216, 421, 61), 1, 2.737826207686154)
((48, 55, 116, 188, 88, 209, 440, 62), 1, 2.7481219662806353)
((48, 55, 116, 188, 88, 209, 440, 62), 1, 2.7549738315422996)
((48, 55, 116, 188, 88, 209, 440, 62), 1, 2.7659589389843595)
((51, 50, 118, 167, 80, 201, 413, 61), 1, 2.783751437568885)
((51, 50, 118, 167, 80, 201, 413, 61), 1, 2.7928577985653105)
((49, 51, 117, 178, 74, 199, 450, 58), 1, 2.8031695222282216)
((48, 55, 120, 198, 65, 198, 424, 52), 1, 2.8163846076213814)
((49, 51, 100, 186, 63, 198, 378, 47), 1, 2.830807906586104)
((49, 51, 100, 186, 63, 198, 378, 47), 1, 2.8400568128363712)
((48, 51, 87, 180, 60, 166, 314, 39), 1, 2.851431924092942)
((48, 51, 87, 180, 60, 166, 314, 39), 1, 2.8603164846743896)
((48, 51, 87, 180, 60, 166, 314, 39), 1, 2.8696577602491464)
((51, 51, 77, 177, 62, 191, 329, 39), 1, 2.8878254379417836)
((60, 59, 84, 175, 62, 183, 254, 43), 1, 2.898870984571472)
((60, 59, 84, 175, 62, 183, 254, 43), 1, 2.9077538346098737)
((57, 59, 73, 131, 63, 169, 232, 40), 1, 2.9222335814951172)
((57, 59, 73, 131, 63, 169, 232, 40), 1, 2.930547961061198)
((62, 60, 82, 135, 64, 176, 236, 40), 1, 2.9422070224634216)
((64, 60, 78, 137, 64, 210, 262, 53), 1, 2.9536231867530987)
((64, 60, 78, 137, 64, 210, 262, 53), 1, 2.962385728597258)
((59, 59, 79, 156, 65, 191, 242, 52), 1, 2.9746218131870323)
((59, 59, 79, 156, 65, 191, 242, 52), 1, 2.9878779516132985)
((59, 59, 79, 156, 65, 191, 242, 52), 1, 2.995972811488463)
((52, 52, 75, 151, 63, 194, 236, 49), 1, 3.0083639853144177)
((62, 55, 82, 148, 56, 202, 251, 50), 1, 3.019473962398843)
((56, 65, 108, 152, 57, 183, 262, 52), 1, 3.031147848507466)
((56, 65, 108, 152, 57, 183, 262, 52), 1, 3.044037360540851)
((54, 68, 106, 147, 51, 133, 227, 38), 1, 3.058213200944904)
((54, 68, 106, 147, 51, 133, 227, 38), 1, 3.0652965596988078)
((63, 68, 107, 137, 46, 107, 204, 37), 1, 3.085494651987166)
((73, 71, 109, 126, 66, 89, 201, 38), 1, 3.098855133539245)
((63, 68, 104, 136, 131, 57, 139, 36), 1, 3.1138583065965952)
((63, 68, 104, 136, 131, 57, 139, 36), 1, 3.1222325551692895)
((63, 68, 104, 136, 131, 57, 139, 36), 1, 3.1313337845365767)
((72, 64, 84, 144, 177, 44, 100, 31), 1, 3.1445249223270912)
((107, 79, 91, 156, 235, 51, 78, 35), 1, 3.160850915340093)
((142, 88, 104, 173, 297, 63, 62, 38), 1, 3.1747108754616327)
((142, 88, 104, 173, 297, 63, 62, 38), 1, 3.184183862850939)
((142, 88, 104, 173, 297, 63, 62, 38), 1, 3.198595188014339)
((185, 103, 101, 206, 328, 71, 64, 58), 1, 3.212892476974665)
((249, 131, 98, 223, 434, 80, 62, 95), 1, 3.227682972513284)
((271, 161, 92, 318, 476, 104, 62, 107), 1, 3.238782686339432)
((271, 161, 92, 318, 476, 104, 62, 107), 1, 3.2511909655958475)
((270, 158, 88, 331, 460, 103, 61, 106), 1, 3.26608808498434)
((270, 158, 88, 331, 460, 103, 61, 106), 1, 3.274974926289849)
((265, 156, 69, 329, 463, 96, 60, 106), 1, 3.289986081881415)
((264, 155, 75, 335, 542, 100, 119, 113), 1, 3.3063690929959533)
((264, 155, 75, 335, 542, 100, 119, 113), 1, 3.317712844296679)
((214, 131, 79, 345, 501, 98, 131, 84), 1, 3.333238873345121)
((190, 100, 74, 305, 494, 75, 133, 72), 1, 3.3476444966983667)
((176, 94, 71, 285, 512, 75, 146, 94), 1, 3.359590929332335)
((176, 94, 71, 285, 512, 75, 146, 94), 1, 3.368512551679782)
((170, 94, 80, 284, 488, 82, 175, 122), 1, 3.375615296588208)
((170, 94, 80, 284, 488, 82, 175, 122), 1, 3.3838390173728454)
((124, 86, 79, 271, 515, 104, 319, 121), 1, 3.4042144359569835)
((120, 86, 81, 310, 529, 108, 380, 285), 1, 3.414002163266772)
((120, 86, 81, 310, 529, 108, 380, 285), 1, 3.422802907238961)
((120, 86, 81, 310, 529, 108, 380, 285), 1, 3.430469561171585)
((167, 89, 82, 332, 618, 122, 425, 413), 1, 3.4468229228733245)
((227, 134, 90, 340, 627, 256, 481, 540), 0, 3.462132283135927)
((234, 160, 131, 455, 756, 502, 549, 649), 0, 3.478862534488824)
((234, 160, 131, 455, 756, 502, 549, 649), 3, 3.4911944094891805)
((256, 190, 140, 523, 732, 521, 506, 772), 0, 3.5044037930721865)
((284, 200, 145, 571, 783, 535, 562, 808), 2, 3.526950460962842)
((306, 214, 156, 710, 885, 565, 652, 813), 2, 3.5349118984804107)
((306, 214, 156, 710, 885, 565, 652, 813), 2, 3.5440764179404036)
((274, 197, 163, 748, 920, 525, 630, 784), 2, 3.561635712489644)
((274, 197, 163, 748, 920, 525, 630, 784), 2, 3.569596009645182)
((267, 180, 141, 721, 941, 311, 567, 705), 2, 3.5869785480796588)
((251, 146, 137, 708, 950, 275, 565, 579), 2, 3.6013619343733057)
((251, 146, 137, 708, 950, 275, 565, 579), 2, 3.614255437673798)
((251, 146, 137, 708, 950, 275, 565, 579), 2, 3.6214511220877292)
((215, 131, 132, 694, 886, 365, 474, 469), 2, 3.6328969357902055)
((149, 118, 137, 633, 919, 332, 396, 380), 2, 3.648845468971034)
((166, 113, 131, 597, 877, 340, 487, 308), 2, 3.6630247304611796)
((160, 104, 117, 559, 754, 396, 536, 326), 2, 3.6758423996866285)
((160, 104, 117, 559, 754, 396, 536, 326), 2, 3.68389335562361)
((160, 104, 117, 559, 754, 396, 536, 326), 2, 3.693078401600156)
((152, 104, 115, 602, 735, 403, 531, 318), 2, 3.708330743761222)
((132, 80, 93, 459, 509, 365, 499, 326), 2, 3.7368825581057217)
((132, 80, 93, 459, 509, 365, 499, 326), 2, 3.7481253873667275)
((88, 64, 83, 533, 564, 392, 434, 321), 2, 3.7616038963889866)
((85, 79, 87, 542, 571, 434, 499, 370), 2, 3.774026430170786)
((85, 79, 87, 542, 571, 434, 499, 370), 2, 3.7836967001914097)
((82, 78, 76, 440, 517, 435, 483, 374), 2, 3.797850873716879)
((82, 78, 76, 440, 517, 435, 483, 374), 2, 3.8076254868633144)
((102, 99, 99, 442, 506, 415, 581, 421), 2, 3.824133937801234)
((99, 95, 98, 484, 501, 437, 567, 404), 2, 3.840681731229213)
((99, 95, 98, 484, 501, 437, 567, 404), 2, 3.8488889167644054)
((96, 98, 103, 403, 428, 404, 560, 391), 2, 3.86013801801658)
((96, 98, 103, 403, 428, 404, 560, 391), 2, 3.8679380943068)
((85, 86, 99, 385, 420, 285, 451, 314), 2, 3.8818014755144317)
((85, 86, 99, 385, 420, 285, 451, 314), 2, 3.8964876279272382)
((85, 86, 99, 385, 420, 285, 451, 314), 2, 3.9045916106986485)
((82, 93, 108, 426, 410, 273, 449, 302), 2, 3.9200663234557074)
((57, 67, 79, 385, 403, 243, 330, 336), 2, 3.9329809234537687)
((56, 68, 76, 401, 387, 131, 311, 332), 2, 3.9485434440871945)
((50, 61, 70, 396, 386, 224, 296, 323), 2, 3.96182923192626)
((50, 61, 70, 396, 386, 224, 296, 323), 2, 3.9695300967198057)
((49, 61, 70, 389, 387, 235, 318, 319), 2, 3.9833997499186067)
((46, 50, 61, 384, 389, 239, 307, 322), 2, 3.9970373394441534)
((46, 50, 61, 384, 389, 239, 307, 322), 2, 4.011295285914419)
((44, 52, 66, 408, 401, 242, 365, 349), 2, 4.021041960191102)
((44, 52, 66, 408, 401, 242, 365, 349), 2, 4.034958368233163)
((43, 58, 74, 383, 375, 240, 371, 346), 2, 4.0472429182092435)
((45, 58, 82, 460, 486, 153, 346, 345), 2, 4.058091752388631)
((45, 58, 82, 460, 486, 153, 346, 345), 2, 4.072808124395252)
((47, 60, 84, 462, 462, 128, 324, 368), 2, 4.083016075113366)
((47, 60, 84, 462, 462, 128, 324, 368), 2, 4.093465212400981)
((50, 63, 88, 430, 479, 115, 332, 367), 2, 4.1029746913752705)
((52, 71, 103, 507, 462, 106, 273, 262), 2, 4.126544264007494)
((54, 69, 104, 483, 471, 112, 355, 292), 2, 4.141041686504215)
((54, 69, 104, 483, 471, 112, 355, 292), 2, 4.1512524881274055)
((56, 73, 99, 408, 350, 100, 360, 323), 2, 4.163855199110062)
((56, 73, 99, 408, 350, 100, 360, 323), 2, 4.1730932719210365)
((56, 71, 98, 445, 406, 102, 389, 303), 2, 4.18562984190591)
((57, 69, 101, 527, 499, 104, 401, 298), 2, 4.197416623855576)
((57, 69, 101, 527, 499, 104, 401, 298), 2, 4.2119442659461095)
((51, 59, 85, 446, 504, 108, 372, 263), 2, 4.230281857581327)
((53, 58, 78, 488, 477, 100, 294, 266), 2, 4.2446521297116195)
((51, 54, 81, 503, 491, 100, 277, 218), 2, 4.256961767652377)
((51, 54, 81, 503, 491, 100, 277, 218), 2, 4.266959891756836)
((48, 52, 77, 506, 522, 98, 255, 221), 2, 4.284940550076433)
((48, 46, 61, 455, 430, 89, 250, 264), 2, 4.299487578321489)
((50, 48, 72, 446, 465, 89, 244, 266), 2, 4.32417869701094)
((47, 45, 73, 405, 490, 91, 223, 241), 2, 4.3398871839843)
((47, 45, 73, 405, 490, 91, 223, 241), 2, 4.348519724556955)
((43, 42, 68, 395, 505, 85, 225, 236), 2, 4.364976859203491)
((48, 53, 84, 419, 445, 89, 263, 248), 2, 4.382574355880761)
((46, 55, 87, 421, 478, 89, 260, 212), 2, 4.396776424611521)
((46, 55, 87, 421, 478, 89, 260, 212), 2, 4.40532115730781)
((46, 55, 87, 421, 478, 89, 260, 212), 2, 4.419474760652264)
((42, 52, 72, 469, 446, 81, 244, 180), 2, 4.439489254653675)
((44, 58, 76, 498, 401, 84, 234, 174), 2, 4.460466214209025)
((44, 58, 76, 498, 401, 84, 234, 174), 2, 4.472198828962231)
((38, 45, 64, 450, 427, 77, 186, 123), 2, 4.484955488819035)
((33, 41, 64, 423, 381, 73, 157, 77), 2, 4.496605997506029)
((33, 41, 64, 423, 381, 73, 157, 77), 2, 4.5051763883480085)
((39, 55, 99, 553, 400, 82, 156, 70), 2, 4.527541168494762)
((39, 55, 99, 553, 400, 82, 156, 70), 2, 4.537478853411592)
((48, 79, 165, 535, 390, 90, 167, 66), 2, 4.553001461373943)
((51, 81, 184, 515, 394, 175, 277, 77), 2, 4.569024688267785)
((54, 89, 213, 513, 339, 193, 339, 76), 2, 4.578613992584225)
((54, 89, 213, 513, 339, 193, 339, 76), 2, 4.589359053818816)
((60, 98, 232, 525, 328, 251, 417, 87), 2, 4.602691596501141)
((65, 111, 255, 373, 212, 278, 464, 95), 2, 4.622180953787399)
((65, 111, 255, 373, 212, 278, 464, 95), 2, 4.633582293370677)
((58, 98, 226, 384, 174, 278, 473, 92), 2, 4.643974982737769)
((58, 98, 226, 384, 174, 278, 473, 92), 2, 4.652312169544465)
((58, 98, 226, 384, 174, 278, 473, 92), 2, 4.662247573737234)
((66, 101, 220, 395, 166, 247, 464, 97), 2, 4.6784589603661475)
((66, 101, 220, 395, 166, 247, 464, 97), 2, 4.691132943975724)
((63, 93, 202, 357, 123, 248, 472, 91), 2, 4.701559844203739)
((63, 93, 202, 357, 123, 248, 472, 91), 2, 4.71029387699713)
((57, 74, 162, 314, 120, 226, 443, 105), 2, 4.728088656305717)
((57, 74, 162, 314, 120, 226, 443, 105), 2, 4.741026633725409)
((57, 74, 162, 314, 120, 226, 443, 105), 3, 4.7482052127088785)
((60, 72, 156, 300, 129, 226, 436, 140), 3, 4.765791305765841)
((70, 67, 139, 310, 120, 212, 413, 172), 3, 4.780967813851864)
((110, 69, 114, 332, 122, 208, 336, 323), 3, 4.795404797160955)
((154, 125, 124, 360, 233, 150, 215, 348), 3, 4.812191496434373)
((183, 138, 126, 359, 316, 149, 182, 434), 3, 4.826502469739068)
((214, 142, 130, 347, 351, 157, 229, 506), 3, 4.8482012784598725)
((214, 142, 130, 347, 351, 157, 229, 506), 3, 4.857232945743285)
((273, 146, 124, 403, 377, 167, 377, 561), 3, 4.868799637821019)
((321, 146, 118, 440, 391, 180, 528, 654), 3, 4.883649432185236)
((321, 146, 118, 440, 391, 180, 528, 654), 3, 4.8942439656317696)
((323, 112, 107, 429, 354, 173, 579, 696), 3, 4.9059640364026365)
((323, 112, 107, 429, 354, 173, 579, 696), 3, 4.915021932012756)
((352, 108, 100, 483, 359, 162, 611, 703), 3, 4.9324272776878475)
((362, 114, 88, 542, 348, 152, 637, 695), 3, 4.947294177482525)
((328, 107, 86, 530, 337, 133, 619, 688), 3, 4.95914253898185)
((328, 107, 86, 530, 337, 133, 619, 688), 3, 4.96892285393844)
((290, 117, 121, 762, 378, 134, 500, 589), 3, 4.983423127340236)
((280, 115, 134, 774, 367, 128, 442, 575), 3, 4.995729344194902)
((280, 115, 134, 774, 367, 128, 442, 575), 3, 5.005230270453961)
((280, 115, 134, 774, 367, 128, 442, 575), 3, 5.013087364845718)
((233, 109, 139, 739, 312, 123, 404, 524), 3, 5.026530522645024)
((233, 109, 139, 739, 312, 123, 404, 524), 3, 5.034455468577609)
((207, 117, 141, 703, 298, 122, 364, 484), 3, 5.0495105281073585)
((222, 137, 150, 695, 329, 138, 329, 495), 3, 5.062533462498339)
((222, 137, 150, 695, 329, 138, 329, 495), 3, 5.07254242004209)
((198, 137, 135, 468, 267, 136, 324, 457), 3, 5.081842072402726)
((198, 137, 135, 468, 267, 136, 324, 457), 3, 5.093165297186898)
((184, 131, 122, 441, 282, 135, 319, 402), 3, 5.107915880054441)
((173, 126, 169, 454, 265, 143, 319, 376), 3, 5.116092845995818)
((173, 126, 169, 454, 265, 143, 319, 376), 3, 5.126767204784503)
((149, 110, 174, 475, 258, 137, 281, 378), 3, 5.147677453161055)
((108, 83, 162, 413, 198, 121, 238, 428), 3, 5.161903469494461)
((91, 64, 153, 314, 181, 95, 291, 416), 3, 5.176726465350955)
((91, 64, 153, 314, 181, 95, 291, 416), 3, 5.184155353800171)
((84, 72, 157, 337, 181, 87, 299, 436), 3, 5.199762918733811)
((84, 72, 157, 337, 181, 87, 299, 436), 3, 5.212222514281609)
((83, 67, 104, 361, 200, 84, 294, 460), 3, 5.2294847445218435)
((83, 67, 92, 325, 201, 87, 297, 433), 3, 5.242452941535349)
((83, 67, 92, 325, 201, 87, 297, 433), 3, 5.255309953250858)
((93, 85, 105, 303, 196, 85, 253, 310), 3, 5.269878648374499)
((126, 80, 103, 314, 200, 84, 275, 334), 3, 5.282063416672891)
((128, 74, 96, 324, 188, 87, 292, 306), 3, 5.295642277553855)
((128, 74, 96, 324, 188, 87, 292, 306), 3, 5.304643725243453)
((128, 74, 96, 324, 188, 87, 292, 306), 3, 5.314628165003544)
((128, 77, 123, 292, 167, 82, 296, 267), 3, 5.327936189902208)
((130, 78, 133, 342, 165, 95, 290, 307), 3, 5.3387091900065515)
((130, 78, 133, 342, 165, 95, 290, 307), 3, 5.353000777156724)
((113, 54, 122, 380, 191, 95, 291, 300), 3, 5.367241618196529)
((91, 57, 126, 370, 188, 91, 212, 287), 3, 5.380488063545534)
((91, 57, 126, 370, 188, 91, 212, 287), 3, 5.387444271933011)
((86, 61, 125, 363, 199, 90, 204, 284), 3, 5.404184216363169)
((87, 59, 88, 356, 200, 100, 199, 288), 3, 5.4196093233718905)
((87, 59, 88, 356, 200, 100, 199, 288), 3, 5.427599269940228)
((83, 58, 71, 296, 198, 88, 195, 281), 3, 5.458808127816338)
((82, 60, 104, 298, 194, 88, 209, 262), 3, 5.473209759902476)
((77, 60, 110, 363, 198, 99, 210, 292), 3, 5.487708322761227)
((85, 68, 123, 341, 181, 95, 240, 366), 3, 5.502812988039313)
((85, 68, 123, 341, 181, 95, 240, 366), 3, 5.512243782033482)
((95, 63, 121, 341, 234, 83, 236, 365), 3, 5.530330494021937)
((97, 67, 136, 357, 229, 83, 243, 349), 3, 5.551501315122512)
((100, 65, 114, 330, 244, 88, 240, 354), 3, 5.566684665380718)
((95, 62, 104, 253, 255, 76, 288, 309), 3, 5.578607720593057)
((95, 62, 104, 253, 255, 76, 288, 309), 3, 5.590839813915724)
((106, 52, 94, 250, 257, 76, 234, 272), 3, 5.60352976259373)
((106, 52, 94, 250, 257, 76, 234, 272), 3, 5.611509445903791)
((94, 54, 94, 276, 233, 84, 236, 283), 3, 5.625326642449179)
((94, 54, 94, 276, 233, 84, 236, 283), 3, 5.6370125023591235)
((90, 48, 66, 304, 252, 80, 220, 270), 3, 5.664354392589015)
((90, 48, 66, 304, 252, 80, 220, 270), 3, 5.676702232657802)
((90, 52, 75, 337, 236, 98, 171, 295), 3, 5.687101194016064)
((90, 52, 75, 337, 236, 98, 171, 295), 3, 5.697553182208756)
((66, 51, 72, 346, 228, 95, 173, 238), 3, 5.710954716793941)
((71, 51, 73, 327, 197, 88, 173, 245), 3, 5.723491856959829)
((71, 51, 73, 327, 197, 88, 173, 245), 3, 5.738458538432196)
((68, 50, 73, 312, 150, 95, 171, 237), 3, 5.750511024735022)
((68, 56, 79, 303, 136, 106, 172, 236), 3, 5.764476468344405)
((62, 54, 79, 271, 160, 98, 196, 186), 3, 5.777172118832566)
((62, 54, 79, 271, 160, 98, 196, 186), 3, 5.787250068279176)
((64, 53, 76, 274, 214, 104, 218, 197), 3, 5.79907277163281)
((64, 53, 76, 274, 214, 104, 218, 197), 3, 5.807615793786053)
((62, 50, 75, 270, 224, 106, 218, 194), 3, 5.823477659452546)
((64, 50, 75, 270, 214, 93, 210, 198), 3, 5.836829588289394)
((64, 50, 75, 270, 214, 93, 210, 198), 3, 5.84566397294149)
((61, 45, 85, 245, 246, 80, 196, 195), 3, 5.861782420064898)
((61, 45, 85, 245, 246, 80, 196, 195), 3, 5.871438435560138)
((54, 46, 78, 262, 246, 67, 135, 181), 3, 5.885778488096616)
((51, 44, 78, 241, 198, 57, 86, 160), 3, 5.899405244182871)
((51, 44, 78, 241, 198, 57, 86, 160), 3, 5.912678488039598)
((41, 49, 88, 226, 184, 50, 56, 105), 3, 5.925105013088505)
((41, 49, 88, 226, 184, 50, 56, 105), 3, 5.937613644203625)
((37, 50, 90, 216, 180, 49, 170, 89), 3, 5.954110121340221)
((37, 50, 90, 216, 180, 49, 170, 89), 3, 5.962838452323459)
((37, 48, 95, 209, 136, 50, 185, 78), 3, 5.974423390193685)
((38, 48, 110, 190, 148, 50, 187, 65), 3, 5.988016505600033)
((38, 48, 110, 190, 148, 50, 187, 65), 3, 5.995984785289786)
((39, 48, 149, 205, 188, 48, 190, 57), 3, 6.010059133473104)
((41, 49, 150, 230, 222, 54, 195, 55), 3, 6.027431978830319)
((56, 58, 157, 237, 317, 59, 114, 52), 3, 6.0439963075077445)
((56, 58, 157, 237, 317, 59, 114, 52), 3, 6.05520834699392)
((59, 62, 149, 243, 349, 68, 107, 55), 3, 6.067072673561675)
((62, 73, 157, 270, 365, 81, 97, 55), 3, 6.084258499545851)
((62, 73, 157, 270, 365, 81, 97, 55), 3, 6.094031972330256)
((65, 76, 132, 271, 407, 90, 95, 53), 3, 6.105732656946601)
((83, 76, 134, 268, 468, 92, 85, 47), 3, 6.121060263001695)
((83, 76, 134, 268, 468, 92, 85, 47), 3, 6.131107422673476)
((77, 74, 131, 346, 431, 97, 77, 42), 3, 6.1430076706452)
((77, 74, 131, 346, 431, 97, 77, 42), 3, 6.154558397654504)
((74, 68, 127, 354, 551, 91, 61, 33), 3, 6.1712584294135855)
((72, 58, 112, 335, 546, 83, 71, 33), 3, 6.184786544184182)
((72, 58, 112, 335, 546, 83, 71, 33), 3, 6.193675666213753)
((68, 56, 115, 341, 518, 78, 70, 33), 3, 6.2049150743886665)
((47, 57, 108, 345, 482, 92, 82, 39), 3, 6.217999018148292)
((47, 57, 108, 345, 482, 92, 82, 39), 3, 6.228145389316746)
((47, 57, 108, 345, 482, 92, 82, 39), 3, 6.239417867990551)
((49, 62, 107, 286, 466, 104, 99, 44), 3, 6.253536120112052)
((60, 71, 110, 286, 359, 126, 130, 61), 3, 6.2775823640731225)
((81, 92, 138, 373, 368, 167, 171, 74), 0, 6.291651010446286)
((87, 105, 139, 374, 363, 208, 200, 89), 1, 6.30421209821482)
((87, 105, 139, 374, 363, 208, 200, 89), 1, 6.31225222071251)
((93, 108, 140, 365, 324, 209, 212, 95), 1, 6.324220890406077)
((97, 108, 144, 345, 360, 235, 295, 105), 1, 6.339616348002)
((97, 108, 144, 345, 360, 235, 295, 105), 1, 6.34921078394758)
((97, 108, 144, 345, 360, 235, 295, 105), 1, 6.364602250276395)
((99, 116, 150, 335, 352, 260, 329, 111), 1, 6.377638869011745)
((85, 100, 115, 222, 335, 261, 404, 107), 1, 6.391959535393702)
((89, 91, 101, 190, 333, 314, 577, 126), 1, 6.401267740469567)
((89, 91, 101, 190, 333, 314, 577, 126), 1, 6.410161994128276)
((91, 97, 102, 247, 351, 427, 675, 145), 1, 6.425701137340071)
((92, 95, 98, 259, 314, 432, 698, 154), 1, 6.44342065275463)
((92, 95, 98, 259, 314, 432, 698, 154), 1, 6.45497423066901)
((103, 95, 135, 279, 246, 582, 848, 207), 1, 6.4756244765025555)
((117, 109, 158, 281, 261, 625, 862, 240), 3, 6.489526630019232)
((117, 109, 158, 281, 261, 625, 862, 240), 3, 6.497964168684632)
((126, 109, 159, 284, 253, 614, 805, 249), 3, 6.5137251123114055)
((131, 106, 162, 237, 236, 559, 752, 286), 3, 6.527660336326973)
((132, 105, 183, 301, 268, 581, 736, 289), 3, 6.540329188307412)
((132, 105, 183, 301, 268, 581, 736, 289), 3, 6.549990335431789)
((132, 105, 183, 301, 268, 581, 736, 289), 3, 6.5586205952803835)
((122, 101, 177, 313, 272, 474, 612, 259), 3, 6.572611126854443)
((124, 127, 196, 333, 246, 507, 566, 258), 0, 6.584803877687049)
((124, 127, 196, 333, 246, 507, 566, 258), 1, 6.595856836669937)
((167, 138, 209, 338, 244, 508, 518, 258), 1, 6.605617195290989)
((167, 138, 209, 338, 244, 508, 518, 258), 1, 6.613749687113168)
((161, 134, 203, 329, 235, 494, 518, 209), 1, 6.626972755040542)
((161, 134, 203, 329, 235, 494, 518, 209), 1, 6.635492399772156)
((160, 137, 199, 300, 402, 468, 478, 193), 1, 6.649710433571346)
((157, 132, 181, 251, 403, 425, 424, 195), 1, 6.669505978062856)
((157, 132, 181, 251, 403, 425, 424, 195), 1, 6.681127407518065)
((145, 93, 139, 227, 406, 313, 440, 155), 1, 6.6931650691144915)
((72, 71, 114, 210, 417, 277, 417, 120), 1, 6.708843336494037)
((64, 65, 122, 223, 412, 268, 423, 117), 1, 6.722829876800988)
((64, 65, 122, 223, 412, 268, 423, 117), 1, 6.73028385321488)
((59, 56, 96, 170, 217, 240, 440, 118), 1, 6.743376349689736)
((59, 56, 96, 170, 217, 240, 440, 118), 1, 6.754028471418821)
((66, 55, 89, 159, 190, 209, 430, 124), 1, 6.763414221112777)
((66, 55, 89, 159, 190, 209, 430, 124), 1, 6.775173634373704)
((69, 56, 89, 139, 184, 192, 417, 129), 1, 6.786700983961378)
((69, 56, 89, 139, 184, 192, 417, 129), 1, 6.794125310962471)
((65, 51, 85, 179, 141, 167, 416, 124), 1, 6.810459286509688)
((66, 51, 76, 188, 142, 203, 355, 114), 1, 6.824671618498725)
((66, 51, 76, 188, 142, 203, 355, 114), 1, 6.836990379335727)
((64, 52, 80, 182, 145, 198, 382, 135), 1, 6.847777633965455)
((59, 50, 82, 190, 151, 192, 370, 104), 1, 6.8623229516674655)
((59, 50, 82, 190, 151, 192, 370, 104), 1, 6.878006920857165)
((53, 47, 84, 192, 130, 210, 339, 105), 1, 6.894989192218854)
((55, 47, 101, 323, 122, 217, 349, 105), 1, 6.906355180579179)
((55, 47, 101, 323, 122, 217, 349, 105), 1, 6.9122998878453945)
((54, 49, 100, 316, 116, 191, 378, 106), 1, 6.924969310006848)
((54, 49, 100, 316, 116, 191, 378, 106), 1, 6.932139336275087)
((59, 59, 111, 325, 117, 242, 375, 86), 1, 6.947706418356636)
((55, 57, 104, 326, 119, 263, 367, 84), 1, 6.960928916102995)
((55, 57, 104, 326, 119, 263, 367, 84), 1, 6.969340796622704)
((55, 58, 108, 343, 126, 257, 403, 76), 1, 6.991903999762805)
((56, 64, 104, 230, 121, 252, 391, 72), 1, 7.004232453677069)
((56, 64, 104, 230, 121, 252, 391, 72), 1, 7.0127794670974195)
((55, 62, 101, 220, 119, 246, 389, 71), 1, 7.021826529268247)
((55, 62, 101, 220, 119, 246, 389, 71), 1, 7.032099480622113)
((49, 57, 85, 227, 101, 230, 374, 65), 1, 7.055805326517009)
((47, 58, 85, 227, 79, 208, 352, 63), 1, 7.067101182612444)
((47, 58, 85, 227, 79, 208, 352, 63), 1, 7.07478722269959)
((46, 58, 81, 204, 63, 189, 307, 62), 1, 7.091594448489562)
((45, 63, 94, 203, 63, 204, 395, 63), 1, 7.105161905750219)
((45, 63, 94, 203, 63, 204, 395, 63), 1, 7.114234055885722)
((44, 64, 97, 205, 61, 201, 377, 60), 1, 7.1258839943917)
((44, 64, 97, 205, 61, 201, 377, 60), 1, 7.135695099123119)
((45, 62, 103, 233, 63, 156, 343, 58), 1, 7.143614913426566)
((45, 62, 103, 233, 63, 156, 343, 58), 1, 7.15251828998152)
((46, 59, 111, 253, 69, 218, 359, 62), 1, 7.1647389796838805)
((46, 59, 111, 253, 69, 218, 359, 62), 1, 7.177156381836542)
((46, 59, 107, 253, 68, 228, 354, 53), 1, 7.1934818046685285)
((52, 51, 96, 264, 67, 206, 311, 55), 1, 7.206766452145563)
((52, 51, 96, 264, 67, 206, 311, 55), 1, 7.213901127190849)
((52, 51, 96, 264, 67, 206, 311, 55), 1, 7.224409563304062)
((53, 49, 94, 265, 65, 239, 324, 53), 1, 7.235178572141297)
((45, 41, 80, 215, 55, 240, 358, 48), 1, 7.249012874117146)
((48, 46, 88, 224, 53, 222, 368, 51), 1, 7.281412269953342)
((38, 36, 82, 233, 70, 222, 296, 43), 1, 7.309351139706322)
((43, 55, 116, 315, 76, 193, 393, 51), 1, 7.325909196392579)
((43, 55, 116, 315, 76, 193, 393, 51), 1, 7.336683907039968)
((43, 55, 116, 315, 76, 193, 393, 51), 1, 7.346430011135635)
((45, 58, 117, 321, 78, 204, 368, 50), 1, 7.360474139725139)
((42, 59, 113, 322, 90, 232, 357, 47), 1, 7.376332014124524)
((40, 59, 116, 336, 89, 228, 358, 49), 1, 7.397029584982344)
((42, 65, 114, 294, 77, 228, 367, 53), 1, 7.41342399971719)
((36, 49, 78, 206, 71, 231, 240, 46), 1, 7.427024527476738)
((37, 48, 77, 195, 72, 226, 227, 50), 1, 7.441364009832202)
((37, 48, 77, 195, 72, 226, 227, 50), 1, 7.460110421255436)
((35, 48, 67, 171, 53, 157, 228, 47), 1, 7.470465478675515)
((36, 50, 71, 157, 50, 152, 234, 47), 1, 7.485087770814601)
((36, 50, 71, 157, 50, 152, 234, 47), 1, 7.502456054723693)
((36, 50, 71, 157, 50, 152, 234, 47), 1, 7.512534004170304)
((36, 42, 72, 177, 48, 152, 224, 44), 1, 7.526668221360235)
((37, 43, 69, 169, 47, 145, 213, 45), 1, 7.545346211061625)
((38, 41, 71, 138, 48, 145, 193, 40), 1, 7.564072095968307)
((38, 41, 71, 138, 48, 145, 193, 40), 1, 7.573805656081636)
((36, 41, 63, 122, 50, 171, 227, 37), 1, 7.592927816793997)
((37, 41, 59, 79, 51, 165, 227, 37), 1, 7.608856393639289)
((37, 41, 59, 79, 51, 165, 227, 37), 1, 7.624246719606074)
((52, 52, 67, 88, 51, 158, 226, 36), 1, 7.63964673865012)
((65, 55, 71, 96, 47, 144, 196, 36), 1, 7.654934432034138)
((65, 52, 64, 96, 45, 137, 206, 36), 1, 7.672540481426639)
((66, 53, 63, 85, 46, 81, 136, 34), 1, 7.688395504920948)
((66, 53, 63, 85, 46, 81, 136, 34), 1, 7.709261279178301)
((83, 67, 60, 97, 165, 78, 113, 35), 1, 7.726385525612816)
((83, 67, 60, 97, 165, 78, 113, 35), 1, 7.738155202132021)
((75, 68, 60, 157, 241, 83, 103, 35), 1, 7.750304049026444)
((84, 75, 80, 170, 266, 91, 87, 37), 1, 7.763584705236371)
((84, 75, 80, 170, 266, 91, 87, 37), 1, 7.774300687239178)
((130, 86, 80, 176, 277, 92, 84, 63), 1, 7.792664507201101)
((181, 108, 84, 220, 276, 90, 84, 79), 1, 7.807164780602898)
((181, 108, 84, 220, 276, 90, 84, 79), 1, 7.816626364371897)
((196, 101, 85, 232, 296, 97, 80, 86), 1, 7.830699002012169)
((196, 101, 85, 232, 296, 97, 80, 86), 1, 7.84362956707866)
((237, 106, 87, 259, 269, 93, 79, 90), 1, 7.856891977496096)
((241, 122, 80, 274, 270, 90, 64, 92), 1, 7.869881841388185)
((241, 122, 80, 274, 270, 90, 64, 92), 1, 7.8824303851743815)
((236, 133, 95, 299, 274, 97, 62, 78), 1, 7.900812450928797)
((236, 133, 95, 299, 274, 97, 62, 78), 1, 7.911237640613765)
((236, 133, 95, 299, 274, 97, 62, 78), 1, 7.920307510025208)
((218, 144, 124, 293, 302, 128, 156, 82), 1, 7.938559574508119)
((211, 163, 135, 304, 292, 137, 159, 99), 1, 7.954561704704393)
((183, 150, 132, 319, 313, 136, 181, 144), 3, 7.969961153567423)
((183, 150, 132, 319, 313, 136, 181, 144), 3, 7.984249319631504)
((220, 195, 166, 394, 359, 167, 240, 164), 3, 8.000220089871931)
((228, 207, 151, 424, 318, 153, 235, 201), 3, 8.011443532978415)
((228, 207, 151, 424, 318, 153, 235, 201), 3, 8.023357465294508)
((238, 206, 140, 440, 317, 148, 258, 224), 3, 8.042445415145947)
((308, 212, 162, 565, 352, 166, 277, 220), 3, 8.055584666464062)
((333, 230, 170, 631, 342, 175, 327, 258), 3, 8.064941907107249)
((333, 230, 170, 631, 342, 175, 327, 258), 3, 8.074808319397158)
((319, 201, 129, 582, 300, 147, 305, 328), 3, 8.090759703483064)
((297, 181, 127, 577, 303, 139, 300, 323), 3, 8.107806975480505)
((287, 170, 138, 615, 300, 142, 297, 314), 3, 8.128342614929961)
((287, 170, 138, 615, 300, 142, 297, 314), 3, 8.1412748905395)
((219, 173, 108, 488, 287, 125, 320, 314), 3, 8.154224841760513)
((185, 153, 99, 457, 289, 122, 281, 288), 3, 8.163381378686292)
((185, 153, 99, 457, 289, 122, 281, 288), 3, 8.174129861006973)
((168, 137, 105, 455, 278, 114, 280, 228), 3, 8.188236139327152)
((168, 137, 105, 455, 278, 114, 280, 228), 3, 8.199460722795665)
((178, 140, 152, 442, 287, 116, 280, 212), 3, 8.219382277291572)
((174, 145, 171, 381, 328, 119, 264, 204), 3, 8.230838924433339)
((158, 134, 183, 455, 360, 132, 216, 192), 3, 8.24546064639141)
((158, 134, 183, 455, 360, 132, 216, 192), 3, 8.254468936253192)
((144, 130, 183, 394, 330, 120, 200, 190), 3, 8.267110989725909)
((144, 124, 180, 404, 345, 120, 182, 154), 3, 8.282456271392478)
((144, 124, 180, 404, 345, 120, 182, 154), 3, 8.292774837227574)
((146, 104, 137, 425, 336, 115, 180, 226), 3, 8.30870056316779)
((146, 104, 137, 425, 336, 115, 180, 226), 3, 8.32085340132932)
((150, 90, 104, 468, 303, 96, 179, 222), 3, 8.335099373998263)
((145, 84, 86, 456, 229, 78, 197, 227), 3, 8.348824201219161)
((145, 84, 86, 456, 229, 78, 197, 227), 3, 8.356967526480632)
((129, 79, 79, 476, 229, 77, 187, 219), 3, 8.368114565331055)
((129, 79, 79, 476, 229, 77, 187, 219), 3, 8.378776950318418)
((150, 68, 73, 463, 193, 75, 181, 219), 3, 8.391588347552698)
((151, 75, 75, 472, 203, 86, 165, 180), 3, 8.413218164370642)
((151, 75, 75, 472, 203, 86, 165, 180), 3, 8.424762049207763)
((152, 69, 69, 398, 182, 79, 174, 170), 3, 8.454735324823572)
((161, 69, 83, 361, 210, 78, 218, 173), 3, 8.46649587844653)
((161, 69, 83, 361, 210, 78, 218, 173), 3, 8.476626284546555)
((138, 70, 88, 416, 234, 83, 222, 166), 3, 8.491318138769515)
((138, 70, 88, 416, 234, 83, 222, 166), 3, 8.502929304966448)
((130, 63, 88, 405, 242, 76, 204, 115), 3, 8.518235244142957)
((127, 64, 94, 390, 243, 78, 196, 114), 3, 8.534763651416416)
((127, 64, 94, 390, 243, 78, 196, 114), 3, 8.544886074982225)
((124, 59, 88, 348, 223, 74, 170, 105), 3, 8.560306620542823)
((114, 62, 72, 363, 210, 75, 126, 139), 3, 8.57492264069074)
((114, 62, 72, 363, 210, 75, 126, 139), 3, 8.584269047894635)
((87, 62, 71, 310, 216, 68, 121, 136), 3, 8.598519011830685)
((71, 65, 72, 322, 223, 69, 117, 128), 3, 8.614210393373584)
((90, 67, 75, 376, 239, 75, 145, 128), 3, 8.638845064142513)
((90, 72, 88, 387, 239, 78, 138, 144), 3, 8.64840414886514)
((90, 72, 88, 387, 239, 78, 138, 144), 3, 8.659447414770767)
((93, 68, 91, 371, 232, 75, 122, 102), 3, 8.671950344075734)
((101, 63, 89, 385, 244, 80, 113, 112), 3, 8.685942586192839)
((101, 63, 89, 385, 244, 80, 113, 112), 3, 8.696431065970513)
((110, 65, 88, 355, 232, 80, 113, 169), 3, 8.711767794921855)
((101, 71, 89, 363, 217, 77, 65, 176), 3, 8.733996301805934)
((103, 66, 76, 377, 227, 76, 75, 171), 3, 8.748497715569762)
((103, 66, 76, 377, 227, 76, 75, 171), 3, 8.762878821139347)
((92, 65, 71, 386, 218, 73, 69, 169), 3, 8.775476400492865)
((92, 65, 71, 386, 218, 73, 69, 169), 3, 8.786593219749474)
((80, 65, 71, 366, 171, 73, 87, 177), 3, 8.802867326290077)
((66, 58, 74, 360, 224, 91, 106, 135), 3, 8.823355640715258)
((57, 57, 67, 285, 222, 89, 107, 149), 3, 8.837603323927247)
((65, 60, 67, 235, 224, 86, 101, 143), 3, 8.853286152754915)
((65, 60, 67, 235, 224, 86, 101, 143), 3, 8.862202643473223)
((64, 65, 88, 209, 219, 88, 102, 140), 3, 8.874084645652456)
((64, 65, 88, 209, 219, 88, 102, 140), 3, 8.889022247893038)
((68, 70, 100, 209, 220, 84, 83, 123), 3, 8.898053915176451)
((68, 69, 98, 224, 162, 68, 50, 105), 3, 8.910759258741873)
((64, 62, 102, 219, 147, 62, 47, 63), 3, 8.934824888857465)
((52, 62, 100, 240, 153, 60, 42, 59), 3, 8.950486620987565)
((67, 55, 84, 240, 152, 58, 37, 58), 3, 8.96671511304694)
((67, 55, 84, 240, 152, 58, 37, 58), 3, 8.977053635217572)
((64, 60, 83, 223, 141, 59, 36, 41), 3, 8.992522075983462)
((64, 60, 83, 223, 141, 59, 36, 41), 3, 9.004239295849253)
((64, 60, 83, 223, 141, 59, 36, 41), 3, 9.014646239741731)
((63, 62, 100, 143, 113, 49, 33, 32), 3, 9.036141493840049)
((63, 59, 122, 109, 65, 47, 31, 30), 3, 9.050659442853323)
((63, 59, 122, 109, 65, 47, 31, 30), 3, 9.0608029631167)
((46, 65, 144, 130, 61, 43, 31, 27), 3, 9.070803938126238)
((46, 65, 144, 130, 61, 43, 31, 27), 3, 9.082497780570398)
((39, 53, 142, 132, 56, 38, 30, 27), 3, 9.094632372939436)
((37, 52, 151, 144, 63, 40, 29, 26), 3, 9.108688475330263)
((37, 52, 151, 144, 63, 40, 29, 26), 3, 9.117903740900624)
((34, 53, 149, 166, 55, 32, 26, 26), 3, 9.137921085807111)
((39, 62, 138, 165, 61, 31, 27, 25), 3, 9.157832947225756)
((46, 65, 114, 155, 73, 31, 27, 24), 3, 9.168803800142431)
((46, 65, 114, 155, 73, 31, 27, 24), 3, 9.181638004617326)
((68, 65, 112, 163, 154, 45, 29, 24), 3, 9.190630899591694)
((70, 67, 103, 155, 157, 44, 29, 25), 3, 9.205975040896233)
((70, 67, 103, 155, 157, 44, 29, 25), 3, 9.21786502560968)
((70, 64, 84, 136, 160, 43, 28, 23), 3, 9.227489681149075)
((70, 64, 84, 136, 160, 43, 28, 23), 3, 9.24086042595943)
((70, 64, 84, 136, 160, 43, 28, 23), 3, 9.252627251573557)
((63, 43, 92, 139, 200, 44, 30, 23), 3, 9.268899077390099)
((63, 43, 92, 139, 200, 44, 30, 23), 3, 9.276806347711208)
((63, 43, 92, 139, 200, 44, 30, 23), 3, 9.288086238738213)
((42, 48, 92, 127, 155, 30, 28, 24), 3, 9.304102623459869)
((38, 43, 91, 123, 162, 28, 27, 22), 3, 9.320190280808449)
((43, 49, 115, 140, 166, 33, 28, 26), 3, 9.340045124125556)
((38, 46, 116, 133, 131, 33, 26, 25), 3, 9.356152167628657)
((38, 49, 111, 129, 124, 34, 25, 25), 3, 9.371645126178208)
((33, 42, 113, 143, 116, 33, 26, 26), 3, 9.385559253496208)
((33, 42, 113, 143, 116, 33, 26, 26), 3, 9.393297750236767)
((31, 41, 107, 140, 104, 37, 29, 26), 3, 9.408946368203514)
((31, 41, 107, 140, 104, 37, 29, 26), 3, 9.418881772396283)
((24, 41, 68, 115, 217, 41, 28, 34), 0, 9.444533646096627)
((24, 41, 68, 115, 217, 41, 28, 34), 0, 9.460177132434234)
((29, 39, 67, 139, 258, 45, 169, 83), 0, 9.474719029050153)
((29, 39, 67, 139, 258, 45, 169, 83), 0, 9.484180042638137)
((148, 57, 57, 143, 386, 52, 312, 195), 0, 9.49737859278185)
((148, 57, 57, 143, 386, 52, 312, 195), 0, 9.507449129875262)
((290, 145, 108, 338, 700, 160, 509, 631), 0, 9.53072277856051)
((328, 182, 127, 437, 761, 293, 640, 789), 0, 9.563613100250937)
((476, 283, 176, 522, 863, 393, 797, 969), 3, 9.582386310181894)
((509, 307, 186, 632, 867, 524, 815, 1003), 2, 9.59950314426321)
((519, 312, 201, 768, 936, 554, 829, 1014), 2, 9.611206109603616)
((519, 312, 201, 768, 936, 554, 829, 1014), 2, 9.625425853945853)
((471, 289, 187, 692, 728, 557, 687, 859), 2, 9.647182250949209)
((471, 289, 187, 692, 728, 557, 687, 859), 2, 9.656436859009629)
((342, 212, 153, 662, 610, 555, 599, 762), 2, 9.670658884075928)
((342, 212, 153, 662, 610, 555, 599, 762), 2, 9.685342185583657)
((259, 177, 140, 563, 592, 498, 526, 702), 2, 9.693785426059211)
((193, 143, 123, 408, 483, 475, 492, 573), 2, 9.709979707257663)
((193, 143, 123, 408, 483, 475, 492, 573), 2, 9.723061370293227)
((172, 147, 136, 414, 460, 498, 491, 526), 2, 9.740923430961628)
((149, 133, 124, 441, 432, 455, 597, 502), 2, 9.757569865705266)
((94, 100, 112, 415, 486, 437, 492, 345), 2, 9.773210501137797)
((94, 100, 112, 415, 486, 437, 492, 345), 2, 9.787142874248287)
((83, 93, 115, 473, 481, 448, 541, 371), 2, 9.798935928189122)
((83, 93, 115, 473, 481, 448, 541, 371), 2, 9.808850805865339)
((75, 83, 96, 433, 546, 462, 560, 365), 2, 9.820447147355871)
((71, 59, 72, 417, 530, 439, 628, 349), 2, 9.834850489985056)
((71, 59, 72, 417, 530, 439, 628, 349), 2, 9.842780567546779)
((77, 64, 66, 389, 536, 470, 559, 406), 2, 9.861316582175343)
((83, 62, 67, 411, 490, 463, 597, 432), 2, 9.873717449078558)
((83, 62, 67, 411, 490, 463, 597, 432), 2, 9.884288034922447)
((77, 57, 61, 347, 451, 393, 569, 448), 2, 9.896358767017766)
((78, 64, 75, 350, 337, 369, 540, 455), 2, 9.912509144278033)
((78, 64, 75, 350, 337, 369, 540, 455), 2, 9.927123453882905)
((76, 61, 74, 348, 342, 426, 473, 479), 2, 9.943701466904699)
((74, 67, 90, 394, 338, 425, 513, 428), 2, 9.964519916137776)
((64, 65, 95, 372, 302, 418, 458, 392), 2, 9.979732345627767)
((61, 65, 99, 435, 336, 419, 460, 346), 2, 9.996524176530324)
((67, 64, 89, 429, 395, 433, 470, 344), 2, 10.008733462612376)
((67, 64, 89, 429, 395, 433, 470, 344), 2, 10.01943861117589)
((72, 65, 97, 439, 519, 501, 480, 324), 2, 10.036542901274867)
((59, 51, 81, 396, 514, 482, 389, 341), 2, 10.052275906031888)
((60, 53, 73, 416, 536, 449, 421, 322), 2, 10.068933744395833)
((60, 53, 73, 416, 536, 449, 421, 322), 2, 10.079983282292629)
((61, 57, 72, 376, 524, 445, 422, 337), 2, 10.090856064074663)
((61, 57, 72, 376, 524, 445, 422, 337), 2, 10.10499313216967)
((53, 52, 74, 368, 479, 445, 450, 353), 2, 10.118004092759328)
((49, 50, 64, 429, 371, 332, 430, 317), 2, 10.12926345726978)
((49, 50, 64, 429, 371, 332, 430, 317), 2, 10.14000110615117)
((49, 54, 72, 438, 382, 364, 394, 292), 2, 10.159715684938497)
((45, 51, 70, 401, 371, 366, 355, 279), 2, 10.172458090269918)
((45, 51, 70, 401, 371, 366, 355, 279), 2, 10.181598662127266)
((49, 49, 74, 375, 359, 365, 356, 311), 2, 10.19325259190035)
((52, 50, 78, 457, 359, 338, 424, 295), 2, 10.208763796242392)
((52, 50, 78, 457, 359, 338, 424, 295), 2, 10.221165233326625)
((51, 52, 81, 423, 346, 385, 400, 281), 2, 10.238298602657386)
((48, 45, 73, 406, 342, 333, 398, 281), 2, 10.24909612054539)
((48, 45, 73, 406, 342, 333, 398, 281), 2, 10.260736936155121)
((53, 53, 77, 452, 373, 385, 392, 284), 2, 10.277310387728793)
((53, 53, 77, 452, 373, 385, 392, 284), 2, 10.287875841943542)
((56, 53, 70, 451, 344, 396, 427, 274), 2, 10.301500317305734)
((54, 51, 63, 357, 335, 397, 318, 282), 2, 10.313957632129473)
((54, 51, 63, 357, 335, 397, 318, 282), 2, 10.32676674863969)
((54, 48, 58, 308, 305, 311, 328, 300), 2, 10.338641338465722)
((53, 50, 59, 295, 298, 412, 328, 283), 2, 10.355634443266704)
((47, 43, 67, 296, 322, 366, 317, 273), 2, 10.374718401851036)
((47, 43, 67, 296, 322, 366, 317, 273), 2, 10.387130102193543)
((40, 43, 76, 294, 336, 358, 196, 206), 2, 10.398403151048363)
((39, 44, 78, 311, 330, 356, 162, 143), 2, 10.413794047196163)
((35, 45, 84, 305, 341, 340, 122, 82), 2, 10.426308950302452)
((35, 45, 84, 305, 341, 340, 122, 82), 2, 10.44215656144356)
((34, 53, 152, 306, 318, 178, 89, 52), 2, 10.470980922313407)
((32, 55, 176, 216, 215, 141, 81, 46), 2, 10.486938008209465)
((33, 66, 191, 197, 197, 101, 51, 34), 2, 10.499535017381968)
((52, 50, 78, 457, 359, 338, 424, 295), 2, 10.517162163472037)
((48, 45, 73, 406, 342, 333, 398, 281), 2, 10.532904291125304)
((36, 69, 194, 247, 208, 89, 48, 34), 2, 10.547880665674931)
((36, 69, 198, 297, 233, 82, 42, 32), 2, 10.567492611879493)
((42, 74, 179, 438, 265, 72, 38, 35), 2, 10.584876290676)
((39, 70, 163, 443, 270, 70, 37, 33), 2, 10.6005157857465)
((36, 79, 177, 423, 255, 67, 38, 30), 2, 10.614411667272009)
((35, 79, 171, 394, 271, 66, 37, 28), 2, 10.62980484414387)
((35, 79, 171, 394, 271, 66, 37, 28), 2, 10.639349674341114)
((33, 73, 130, 285, 236, 52, 32, 30), 2, 10.654986888687551)
((33, 73, 130, 285, 236, 52, 32, 30), 2, 10.671538673382639)
((30, 66, 122, 257, 296, 53, 31, 25), 2, 10.684859242263641)
((29, 59, 130, 350, 310, 59, 32, 26), 2, 10.696340407189071)
((29, 59, 130, 350, 310, 59, 32, 26), 2, 10.707990915876064)
((32, 46, 117, 350, 322, 64, 32, 30), 0, 10.725453849833707)
((32, 44, 128, 355, 296, 63, 34, 30), 0, 10.735132672569561)
((34, 49, 144, 386, 326, 72, 61, 30), 0, 10.750269267984507)
((34, 49, 144, 386, 326, 72, 61, 30), 0, 10.761920346852515)
((37, 53, 140, 386, 294, 83, 72, 35), 0, 10.778401429101697)
((37, 53, 140, 386, 294, 83, 72, 35), 0, 10.785482507131539)
((37, 53, 128, 304, 268, 82, 88, 35), 0, 10.797555519950919)
((34, 51, 122, 327, 291, 81, 92, 35), 0, 10.812373384178276)
((34, 51, 122, 327, 291, 81, 92, 35), 0, 10.821606325360111)
((37, 55, 132, 324, 284, 89, 118, 45), 0, 10.838676974779183)
((37, 55, 132, 324, 284, 89, 118, 45), 0, 10.849776688605331)
((38, 53, 111, 279, 262, 98, 227, 58), 0, 10.867482519675521)
((66, 77, 130, 278, 357, 209, 362, 120), 0, 10.8845571603617)
((91, 95, 139, 290, 412, 273, 425, 151), 0, 10.89790395756941)
((91, 95, 139, 290, 412, 273, 425, 151), 3, 10.905514733762528)
((126, 120, 144, 237, 419, 377, 565, 203), 3, 10.91987531281556)
((169, 152, 160, 304, 463, 585, 786, 278), 3, 10.93490072293251)
((169, 152, 160, 304, 463, 585, 786, 278), 3, 10.946102499160409)
((188, 174, 177, 313, 481, 666, 909, 299), 3, 10.958590603758976)
((188, 174, 177, 313, 481, 666, 909, 299), 3, 10.971424238052855)
((203, 192, 203, 392, 415, 823, 1089, 322), 3, 10.991661102650259)
((203, 192, 203, 392, 415, 823, 1089, 322), 3, 11.002723754710408)
((188, 180, 201, 438, 385, 797, 1087, 325), 3, 11.013565176536595)
((188, 180, 201, 438, 385, 797, 1087, 325), 3, 11.028546682715362)
((160, 163, 187, 479, 349, 687, 988, 290), 3, 11.040391623128595)
((181, 153, 188, 496, 332, 661, 944, 309), 3, 11.052824990349686)
((181, 153, 188, 496, 332, 661, 944, 309), 3, 11.062157713209212)
((181, 153, 188, 496, 332, 661, 944, 309), 3, 11.075459466116708)
((163, 142, 179, 499, 326, 568, 804, 301), 3, 11.09457649519993)
((182, 124, 160, 425, 311, 486, 577, 258), 3, 11.1089718552949)
((182, 124, 160, 425, 311, 486, 577, 258), 3, 11.118090760273665)
((176, 114, 152, 325, 275, 531, 598, 238), 3, 11.131877167044221)
((176, 114, 152, 325, 275, 531, 598, 238), 3, 11.143027056799722)
((176, 114, 152, 325, 275, 531, 598, 238), 3, 11.1516715711737)
((147, 102, 140, 323, 269, 486, 489, 204), 3, 11.164386037635369)
((150, 95, 131, 300, 246, 480, 457, 180), 3, 11.183942106100424)
((150, 95, 131, 300, 246, 480, 457, 180), 1, 11.195967223714513)
((135, 85, 126, 307, 227, 445, 464, 164), 1, 11.210334074758714)
((112, 84, 116, 280, 216, 476, 464, 153), 1, 11.225888612857924)
((112, 83, 106, 275, 239, 391, 337, 160), 1, 11.238229040573511)
((91, 75, 108, 276, 218, 373, 330, 135), 1, 11.250897322372934)
((91, 75, 108, 276, 218, 373, 330, 135), 1, 11.262197739916491)
((79, 79, 115, 262, 211, 407, 400, 148), 1, 11.286283326367622)
((77, 83, 113, 277, 176, 458, 392, 170), 1, 11.301919970533046)
((75, 74, 122, 278, 165, 398, 371, 172), 1, 11.31574001798351)
((75, 74, 122, 278, 165, 398, 371, 172), 1, 11.33058068945148)
((72, 69, 124, 267, 120, 402, 362, 169), 1, 11.342603526341508)
((69, 72, 124, 238, 117, 406, 316, 166), 1, 11.352981961183216)
((69, 72, 124, 238, 117, 406, 316, 166), 1, 11.367893335097094)
((64, 68, 131, 269, 172, 368, 271, 150), 1, 11.394405611949626)
((57, 54, 123, 246, 172, 296, 340, 118), 1, 11.404080443418373)
((51, 53, 122, 246, 168, 300, 367, 110), 1, 11.417487109632695)
((51, 53, 122, 246, 168, 300, 367, 110), 1, 11.424497485216632)
((56, 51, 119, 249, 167, 295, 433, 90), 1, 11.440984269275967)
((68, 53, 108, 225, 165, 314, 433, 126), 1, 11.455364234483522)
((68, 53, 108, 225, 165, 314, 433, 126), 1, 11.46438905959475)
((68, 53, 108, 225, 165, 314, 433, 126), 1, 11.472652693050463)
((62, 55, 104, 259, 111, 260, 373, 128), 1, 11.494798523687315)
((62, 55, 104, 259, 111, 260, 373, 128), 1, 11.506037931862227)
((65, 57, 96, 264, 113, 264, 414, 134), 1, 11.51498350181232)
((65, 57, 96, 264, 113, 264, 414, 134), 1, 11.527813144839092)
((67, 60, 92, 264, 113, 252, 361, 128), 1, 11.541919993340287)
((59, 54, 90, 267, 117, 223, 362, 87), 1, 11.562549142476263)
((58, 49, 96, 233, 112, 236, 430, 83), 1, 11.574631278191887)
((58, 49, 96, 233, 112, 236, 430, 83), 1, 11.591739559557974)
((54, 47, 68, 177, 75, 234, 359, 57), 1, 11.611637166451233)
((54, 47, 68, 177, 75, 234, 359, 57), 1, 11.620366067615485)
((46, 44, 69, 178, 105, 240, 421, 54), 1, 11.63441988928225)
((46, 44, 69, 178, 105, 240, 421, 54), 1, 11.64810879509918)
((43, 46, 80, 207, 105, 233, 433, 49), 1, 11.662187134549605)
((42, 45, 70, 210, 104, 227, 365, 48), 1, 11.673459043042394)
((42, 45, 70, 210, 104, 227, 365, 48), 1, 11.683036373557513)
((40, 46, 72, 203, 103, 187, 348, 45), 1, 11.706735377280225)
((39, 48, 80, 211, 110, 193, 412, 48), 1, 11.72070652269976)
((36, 45, 80, 204, 79, 212, 382, 42), 1, 11.73877555907674)
((36, 45, 80, 204, 79, 212, 382, 42), 1, 11.749585620947082)
((31, 45, 73, 176, 69, 205, 374, 40), 1, 11.765443495346467)
((35, 47, 81, 166, 68, 204, 409, 43), 1, 11.782045455970907)
((35, 47, 81, 166, 68, 204, 409, 43), 1, 11.799505539023475)
((33, 47, 83, 184, 65, 202, 425, 45), 1, 11.812170969917819)
((42, 45, 76, 170, 49, 181, 352, 42), 1, 11.827726078198046)
((45, 46, 81, 166, 44, 149, 277, 42), 1, 11.83805091602431)
((46, 42, 83, 156, 46, 143, 260, 42), 1, 11.852232458238516)
((46, 42, 83, 156, 46, 143, 260, 42), 1, 11.861227633936945)
((48, 43, 80, 135, 43, 127, 188, 41), 1, 11.876840330499723)
((48, 43, 80, 135, 43, 127, 188, 41), 1, 11.894545591388898)
((50, 44, 86, 140, 41, 109, 127, 36), 1, 11.910140042159185)
((46, 49, 84, 140, 45, 106, 108, 32), 1, 11.92690108328691)
((47, 53, 87, 143, 48, 80, 85, 34), 1, 11.942837642666417)
((47, 53, 87, 143, 48, 80, 85, 34), 1, 11.953579852995931)
((54, 64, 79, 144, 46, 46, 51, 31), 1, 11.972118148348557)
((54, 64, 79, 144, 46, 46, 51, 31), 1, 11.984052037000186)
((55, 65, 80, 97, 52, 44, 38, 31), 1, 12.003522578312937)
((55, 65, 80, 97, 52, 44, 38, 31), 1, 12.013333112863341)
((60, 61, 79, 120, 53, 45, 35, 32), 1, 12.026494031060041)
((72, 63, 72, 169, 61, 48, 33, 30), 1, 12.039481044047054)
((106, 69, 69, 208, 95, 54, 31, 31), 1, 12.053417408424652)
((106, 69, 69, 208, 95, 54, 31, 31), 1, 12.068271194055978)
((107, 68, 75, 234, 147, 63, 31, 30), 1, 12.080750175758299)
((196, 77, 74, 270, 185, 74, 35, 32), 1, 12.09949316609544)
((196, 77, 74, 270, 185, 74, 35, 32), 1, 12.11406927357228)
((241, 107, 87, 287, 216, 78, 39, 56), 1, 12.129681970135058)
((253, 123, 86, 356, 247, 82, 40, 68), 1, 12.137231166778518)
((254, 124, 91, 368, 274, 84, 44, 70), 1, 12.151799291721142)
((254, 124, 91, 368, 274, 84, 44, 70), 1, 12.164801129414554)
((262, 126, 119, 369, 443, 142, 77, 88), 1, 12.175793649209815)
((262, 126, 119, 369, 443, 142, 77, 88), 1, 12.18889355803787)
((245, 118, 110, 366, 448, 153, 170, 167), 1, 12.211249785469393)
((245, 118, 110, 366, 448, 153, 170, 167), 1, 12.220583078509934)
((245, 118, 110, 366, 448, 153, 170, 167), 3, 12.230376507629877)
((241, 103, 125, 378, 459, 155, 188, 187), 3, 12.243324748307845)
((241, 103, 125, 378, 459, 155, 188, 187), 3, 12.253325723317381)
((287, 111, 140, 386, 487, 177, 193, 205), 3, 12.26926570378298)
((297, 121, 114, 410, 331, 136, 189, 205), 3, 12.279562602739492)
((287, 138, 115, 397, 340, 134, 199, 196), 3, 12.296323073686203)
((278, 165, 116, 444, 332, 143, 140, 187), 3, 12.316521736155577)
((291, 186, 103, 381, 320, 140, 178, 179), 3, 12.334027433689373)
((291, 186, 103, 381, 320, 140, 178, 179), 3, 12.342942213864635)
((291, 186, 103, 381, 320, 140, 178, 179), 3, 12.354544257165323)
((241, 179, 76, 364, 284, 116, 263, 181), 3, 12.368969836854106)
((220, 174, 74, 359, 291, 115, 287, 246), 3, 12.379499369664888)
((220, 174, 74, 359, 291, 115, 287, 246), 3, 12.390074516956899)
((168, 152, 67, 372, 286, 109, 301, 270), 3, 12.405899320857392)
((152, 113, 62, 317, 288, 83, 311, 248), 3, 12.420231390859657)
((152, 113, 62, 317, 288, 83, 311, 248), 3, 12.43018846193101)
((129, 73, 72, 304, 290, 88, 288, 269), 3, 12.45021778063882)
((114, 78, 83, 338, 259, 90, 232, 260), 3, 12.466840267779812)
((114, 69, 109, 313, 268, 88, 202, 198), 3, 12.48092316867836)
((114, 69, 109, 313, 268, 88, 202, 198), 3, 12.494229483033978)
((109, 68, 114, 284, 250, 88, 172, 164), 3, 12.50638346155754)
((107, 71, 121, 274, 277, 95, 151, 163), 3, 12.521148298950468)
((114, 81, 125, 274, 286, 89, 143, 112), 3, 12.533212759054617)
((114, 81, 125, 274, 286, 89, 143, 112), 3, 12.545390685180825)
((140, 79, 119, 228, 292, 80, 177, 164), 3, 12.560409823306605)
((140, 79, 119, 228, 292, 80, 177, 164), 3, 12.571920067463818)
((153, 82, 98, 230, 281, 88, 241, 165), 3, 12.58584616858314)
((156, 85, 90, 246, 278, 85, 248, 170), 3, 12.599527091865856)
((156, 85, 90, 246, 278, 85, 248, 170), 3, 12.619421277673023)
((158, 81, 92, 272, 238, 79, 248, 165), 3, 12.634917657308666)
((129, 66, 76, 301, 204, 83, 247, 165), 3, 12.650323378162865)
((96, 59, 72, 301, 199, 84, 204, 102), 3, 12.664380050734707)
((93, 56, 66, 295, 183, 75, 151, 131), 3, 12.677628776807774)
((93, 56, 66, 295, 183, 75, 151, 131), 3, 12.689659596232016)
((93, 56, 66, 295, 183, 75, 151, 131), 3, 12.701229139214826)
((87, 57, 69, 290, 172, 77, 139, 128), 3, 12.710420457182542)
((85, 59, 65, 266, 169, 80, 152, 208), 3, 12.732565717638378)
((82, 60, 59, 242, 164, 78, 176, 206), 3, 12.745181542784389)
((82, 60, 59, 242, 164, 78, 176, 206), 3, 12.754343211339304)
((74, 53, 59, 207, 159, 73, 173, 210), 3, 12.765015859584942)
((50, 52, 65, 189, 185, 67, 155, 192), 3, 12.776453690753204)
((50, 52, 65, 189, 185, 67, 155, 192), 3, 12.78911798128552)
((48, 57, 73, 219, 196, 65, 152, 187), 3, 12.798517415323843)
((48, 57, 73, 219, 196, 65, 152, 187), 3, 12.819251477766647)
((58, 55, 64, 268, 208, 61, 135, 100), 3, 12.834614435044694)
((61, 66, 82, 272, 204, 57, 97, 94), 3, 12.848205839907996)
((61, 66, 82, 272, 204, 57, 97, 94), 3, 12.858828882405298)
((64, 71, 85, 284, 202, 56, 93, 88), 3, 12.867981428063967)
((67, 71, 81, 286, 193, 59, 76, 88), 3, 12.886186167522604)
((64, 63, 72, 266, 196, 60, 66, 86), 3, 12.900284463308566)
((57, 67, 74, 255, 173, 59, 69, 83), 3, 12.918170471579613)
((57, 67, 74, 255, 173, 59, 69, 83), 3, 12.929677294650732)
((53, 53, 64, 224, 170, 55, 67, 85), 3, 12.941953862092598)
((50, 48, 60, 218, 186, 55, 66, 74), 3, 12.95436385189206)
((50, 48, 60, 218, 186, 55, 66, 74), 3, 12.965505759113345)
((49, 44, 63, 227, 181, 56, 55, 71), 3, 12.983029132258618)
((49, 44, 63, 227, 181, 56, 55, 71), 3, 12.996404438517096)
((49, 46, 70, 228, 183, 64, 62, 74), 3, 13.00900258805163)
((43, 43, 71, 199, 205, 68, 59, 58), 3, 13.020585245197793)
((45, 49, 72, 200, 201, 72, 57, 66), 3, 13.039213058969832)
((45, 49, 72, 200, 201, 72, 57, 66), 3, 13.052920780760267)
((47, 48, 81, 198, 172, 71, 55, 69), 3, 13.067585836475505)
((42, 47, 86, 247, 164, 73, 46, 74), 3, 13.08124452269862)
((42, 47, 86, 247, 164, 73, 46, 74), 3, 13.091258041690496)
((42, 43, 81, 229, 151, 63, 35, 74), 3, 13.104933833344072)
((45, 45, 80, 227, 137, 56, 32, 77), 3, 13.118859934463394)
((45, 45, 80, 227, 137, 56, 32, 77), 3, 13.134269646584702)
((46, 45, 83, 266, 145, 58, 34, 67), 3, 13.149017948728183)
((64, 47, 80, 283, 157, 64, 35, 65), 3, 13.158894054095354)
((64, 47, 80, 283, 157, 64, 35, 65), 3, 13.172303001033738)
((64, 47, 80, 283, 157, 64, 35, 65), 3, 13.181183570348079)
((62, 47, 72, 249, 163, 66, 37, 53), 3, 13.196081259917586)
((67, 48, 87, 299, 179, 69, 40, 51), 3, 13.20994806221131)
((73, 55, 88, 287, 166, 70, 39, 54), 3, 13.22770178848679)
((72, 53, 82, 259, 185, 67, 36, 49), 3, 13.240089541226654)
((72, 53, 82, 259, 185, 67, 36, 49), 3, 13.248360587035567)
((56, 51, 76, 236, 191, 68, 36, 46), 3, 13.259729426300968)
((56, 51, 76, 236, 191, 68, 36, 46), 3, 13.26930618663507)
((57, 61, 98, 239, 210, 62, 34, 44), 3, 13.279915544788004)
((57, 61, 98, 239, 210, 62, 34, 44), 3, 13.29487139282108)
((53, 62, 93, 179, 193, 58, 31, 42), 3, 13.31039514114546)
((47, 56, 105, 171, 193, 55, 30, 31), 3, 13.320608223492712)
((47, 56, 105, 171, 193, 55, 30, 31), 3, 13.330697576559631)
((47, 56, 105, 171, 193, 55, 30, 31), 3, 13.346502424124587)
((39, 60, 124, 166, 154, 42, 26, 28), 3, 13.365186685817147)
((41, 62, 136, 148, 129, 41, 30, 26), 3, 13.381642680101653)
((41, 62, 136, 148, 129, 41, 30, 26), 3, 13.394843510969427)
((37, 60, 131, 138, 155, 40, 29, 27), 3, 13.403780528204289)
((37, 60, 131, 138, 155, 40, 29, 27), 3, 13.415306737429932)
((32, 55, 120, 134, 168, 41, 28, 26), 3, 13.431636151529027)
((32, 58, 137, 140, 163, 44, 28, 27), 3, 13.453018509786302)
((35, 62, 169, 144, 161, 42, 30, 31), 3, 13.469080508989189)
((35, 70, 190, 135, 149, 47, 30, 32), 3, 13.483977058196666)
((35, 70, 190, 135, 149, 47, 30, 32), 3, 13.49966045720535)
((34, 70, 192, 132, 137, 44, 30, 32), 3, 13.510450562740154)
((34, 70, 192, 132, 137, 44, 30, 32), 3, 13.521151149855545)
((34, 71, 194, 139, 156, 43, 29, 29), 3, 13.540250503327291)
((36, 71, 184, 142, 295, 55, 31, 31), 3, 13.55530670321907)
((34, 65, 143, 128, 327, 56, 28, 27), 3, 13.568360427384881)
((59, 48, 95, 187, 405, 69, 37, 38), 3, 13.576494059569091)
((59, 48, 95, 187, 405, 69, 37, 38), 3, 13.58669288739096)
((59, 48, 95, 187, 405, 69, 37, 38), 3, 13.600839648563229)
((117, 65, 92, 208, 430, 78, 66, 53), 3, 13.61272906309566)
((134, 82, 90, 220, 445, 90, 148, 127), 3, 13.625653356170984)
((197, 92, 81, 251, 486, 95, 309, 185), 3, 13.651695233685839)
((214, 102, 107, 351, 680, 153, 469, 310), 3, 13.664342988968707)
((214, 102, 107, 351, 680, 153, 469, 310), 3, 13.677081403033021)
((214, 102, 107, 351, 680, 153, 469, 310), 3, 13.68703790392336)
((223, 132, 111, 372, 651, 159, 489, 351), 3, 13.699292234305625)
((285, 156, 111, 376, 732, 165, 551, 488), 3, 13.714355846550605)
((309, 167, 118, 409, 801, 178, 568, 529), 3, 13.735929785629043)
((273, 168, 113, 389, 701, 185, 440, 534), 0, 13.763335536132656)
((273, 168, 113, 389, 701, 185, 440, 534), 0, 13.776273513552347)
((264, 150, 98, 405, 768, 233, 456, 542), 2, 13.786664492376394)
((264, 150, 98, 405, 768, 233, 456, 542), 2, 13.797162665231332)
((171, 118, 96, 423, 727, 369, 443, 483), 2, 13.812706369891249)
((111, 96, 89, 399, 715, 371, 459, 454), 2, 13.829228505173537)
((111, 96, 89, 399, 715, 371, 459, 454), 2, 13.84391750849142)
((107, 98, 89, 400, 670, 377, 470, 439), 2, 13.857580756162658)
((107, 91, 82, 408, 722, 375, 438, 395), 2, 13.870934395542553)
((99, 82, 77, 359, 671, 388, 407, 353), 2, 13.884055401068178)
((99, 82, 77, 359, 671, 388, 407, 353), 2, 13.893635012307357)
((102, 87, 88, 422, 621, 296, 414, 330), 2, 13.90882862582384)
((102, 87, 88, 422, 621, 296, 414, 330), 2, 13.918839864091654)
((95, 82, 84, 438, 544, 295, 413, 341), 2, 13.933950231179892)
((71, 67, 80, 387, 486, 299, 403, 330), 2, 13.95377200399811)
((64, 61, 75, 370, 381, 293, 408, 322), 2, 13.96828025993412)
((69, 62, 74, 379, 354, 234, 461, 381), 2, 13.98369453350355)
((65, 58, 61, 342, 367, 189, 462, 432), 2, 13.996064610631937)
((65, 58, 61, 342, 367, 189, 462, 432), 2, 14.005839793959389)
((65, 58, 61, 342, 367, 189, 462, 432), 2, 14.01501058541055)
((58, 56, 61, 306, 378, 174, 443, 399), 2, 14.027003202706764)
((61, 59, 79, 398, 439, 304, 439, 425), 2, 14.041677951499263)
((61, 59, 79, 398, 439, 304, 439, 425), 2, 14.0509034803279)
((61, 61, 83, 462, 494, 317, 436, 420), 2, 14.064183566356812)
((61, 61, 83, 462, 494, 317, 436, 420), 2, 14.074727923873992)
((58, 63, 91, 455, 485, 325, 403, 397), 2, 14.088969335094813)
((58, 63, 91, 455, 485, 325, 403, 397), 2, 14.097202178775696)
((56, 61, 93, 423, 497, 325, 343, 335), 2, 14.116316927134857)
((56, 61, 93, 423, 497, 325, 343, 335), 2, 14.127325982179563)
((77, 66, 80, 475, 538, 176, 397, 376), 2, 14.149256854573622)
((79, 63, 75, 415, 493, 147, 418, 413), 2, 14.164042788664117)
((81, 63, 71, 420, 492, 126, 419, 401), 2, 14.180915015089841)
((81, 63, 71, 420, 492, 126, 419, 401), 2, 14.192568944862925)
((84, 65, 70, 419, 505, 124, 425, 397), 2, 14.199638049091446)
((84, 65, 70, 419, 505, 124, 425, 397), 2, 14.21015731864395)
((84, 65, 70, 419, 505, 124, 425, 397), 2, 14.217456205821662)
((84, 61, 65, 427, 472, 258, 405, 373), 2, 14.229437989678583)
((84, 61, 65, 427, 472, 258, 405, 373), 2, 14.236911352246997)
((73, 60, 77, 296, 331, 268, 386, 409), 2, 14.250083674064005)
((74, 69, 87, 342, 374, 280, 433, 389), 2, 14.265702072436937)
((74, 69, 87, 342, 374, 280, 433, 389), 2, 14.277332624788391)
((68, 68, 86, 385, 387, 282, 414, 397), 2, 14.287175659656672)
((68, 68, 86, 385, 387, 282, 414, 397), 2, 14.297930984149538)
((65, 66, 92, 420, 493, 288, 400, 410), 2, 14.31081707509683)
((68, 66, 96, 427, 491, 176, 417, 503), 2, 14.31969422332508)
((68, 66, 96, 427, 491, 176, 417, 503), 2, 14.332899045459962)
((56, 63, 95, 418, 529, 157, 377, 421), 2, 14.341639350244522)
((56, 63, 95, 418, 529, 157, 377, 421), 2, 14.352621606781504)
((56, 63, 95, 418, 529, 157, 377, 421), 2, 14.366250073410805)
((56, 49, 83, 383, 581, 128, 373, 422), 2, 14.389305912948183)
((64, 56, 83, 351, 490, 117, 403, 474), 2, 14.40593410189933)
((64, 56, 83, 351, 490, 117, 403, 474), 2, 14.423124489331627)
((64, 56, 70, 373, 546, 110, 433, 422), 2, 14.448932592630182)
((65, 59, 75, 329, 478, 115, 380, 394), 2, 14.473578096838404)
((66, 59, 88, 333, 509, 112, 422, 422), 2, 14.483719906558735)
((66, 59, 88, 333, 509, 112, 422, 422), 2, 14.49716078363398)
((59, 54, 83, 356, 513, 114, 397, 342), 2, 14.509245770254683)
((56, 53, 80, 363, 416, 105, 404, 333), 2, 14.52624913831394)
((56, 53, 80, 363, 416, 105, 404, 333), 2, 14.541085818514803)
((56, 53, 80, 363, 416, 105, 404, 333), 2, 14.550662578848907)
((45, 50, 99, 340, 461, 108, 379, 262), 2, 14.567132827658797)
((46, 52, 88, 328, 392, 107, 344, 235), 2, 14.581653057396132)
((46, 52, 88, 328, 392, 107, 344, 235), 2, 14.593597779487054)
((43, 51, 86, 287, 379, 99, 330, 221), 2, 14.610693516870802)
((44, 52, 91, 258, 386, 96, 259, 212), 2, 14.619084300692942)
((44, 52, 91, 258, 386, 96, 259, 212), 2, 14.630080811755308)
((44, 52, 91, 258, 386, 96, 259, 212), 2, 14.645121046578657)
((40, 43, 85, 316, 256, 75, 253, 215), 2, 14.66532484067717)
((33, 40, 79, 286, 344, 55, 132, 161), 2, 14.679022869390346)
((33, 40, 79, 286, 344, 55, 132, 161), 2, 14.688962835031237)
((37, 44, 94, 336, 374, 62, 122, 144), 2, 14.701971514896835)
((37, 44, 94, 336, 374, 62, 122, 144), 2, 14.715886782576865)
((37, 50, 103, 397, 381, 68, 84, 94), 2, 14.72708171663258)
((37, 57, 112, 340, 375, 63, 75, 77), 2, 14.741676069901912)
((37, 57, 112, 340, 375, 63, 75, 77), 2, 14.751644544593573)
((38, 64, 134, 326, 367, 64, 67, 48), 2, 14.770711967928458)
((41, 67, 151, 328, 265, 64, 49, 40), 2, 14.785497331837938)
((38, 67, 171, 297, 174, 56, 40, 31), 2, 14.799626987579748)
((38, 67, 171, 297, 174, 56, 40, 31), 2, 14.80927502054077)
((38, 67, 171, 297, 174, 56, 40, 31), 2, 14.822377780273904)
((36, 65, 172, 219, 130, 47, 34, 29), 2, 14.834055657649634)
((39, 62, 167, 251, 169, 47, 32, 27), 2, 14.84268078586909)
((39, 62, 167, 251, 169, 47, 32, 27), 2, 14.855838282979697)
((44, 63, 160, 259, 174, 48, 33, 27), 2, 14.874950180433782)
((41, 58, 145, 262, 186, 45, 31, 25), 2, 14.890504718532993)
((41, 58, 145, 262, 186, 45, 31, 25), 2, 14.8992541462138)
((42, 66, 122, 268, 203, 49, 32, 26), 2, 14.912399669523083)
((41, 63, 116, 274, 251, 83, 37, 27), 2, 14.925310848435053)
((41, 63, 116, 274, 251, 83, 37, 27), 2, 14.9331639515597)
((47, 61, 111, 251, 255, 90, 38, 48), 2, 14.948069623663425)
((47, 61, 111, 251, 255, 90, 38, 48), 2, 14.96264516095925)
((42, 55, 86, 286, 278, 94, 37, 52), 2, 14.978731677945797)
((42, 55, 86, 286, 278, 94, 37, 52), 2, 14.991215221096242)
((43, 44, 85, 269, 315, 97, 52, 53), 2, 15.007780119954681)
((43, 44, 85, 269, 315, 97, 52, 53), 2, 15.01690586710563)
((48, 49, 79, 284, 312, 88, 102, 58), 2, 15.029837002353137)
((40, 52, 85, 310, 381, 116, 152, 50), 2, 15.045956019657561)
((54, 59, 96, 289, 440, 139, 227, 68), 2, 15.060251027893825)
((54, 59, 96, 289, 440, 139, 227, 68), 2, 15.074545465949075)
((60, 64, 109, 287, 483, 220, 432, 75), 2, 15.08472490761642)
((116, 99, 112, 303, 490, 521, 734, 259), 0, 15.09858372737593)
((116, 99, 112, 303, 490, 521, 734, 259), 0, 15.107546402756483)
((116, 99, 112, 303, 490, 521, 734, 259), 3, 15.119682705668568)
((131, 109, 115, 274, 493, 674, 968, 311), 3, 15.133269549083748)
((131, 109, 115, 274, 493, 674, 968, 311), 3, 15.146994376304646)
((131, 109, 115, 274, 493, 674, 968, 311), 3, 15.156392099799923)
((131, 109, 115, 274, 493, 674, 968, 311), 3, 15.170571931471084)
((131, 109, 115, 274, 493, 674, 968, 311), 3, 15.18480764088175)
((131, 109, 115, 274, 493, 674, 968, 311), 3, 15.195153575405584)
((131, 109, 115, 274, 493, 674, 968, 311), 3, 15.204636255872153)
((131, 109, 115, 274, 493, 674, 968, 311), 3, 15.216047858713706)
((131, 109, 115, 274, 493, 674, 968, 311), 3, 15.224494520275352)
((131, 109, 115, 274, 493, 674, 968, 311), 3, 15.235243002596034)
((131, 109, 115, 274, 493, 674, 968, 311), 3, 15.244375591919166)
((131, 109, 115, 274, 493, 674, 968, 311), 0, 15.25483841355115)
((131, 109, 115, 274, 493, 674, 968, 311), 1, 15.262843184825886)
((131, 109, 115, 274, 493, 674, 968, 311), 1, 15.272531700639002)
((131, 109, 115, 274, 493, 674, 968, 311), 1, 15.28424435905667)
((131, 109, 115, 274, 493, 674, 968, 311), 1, 15.292823872794896)
((131, 109, 115, 274, 493, 674, 968, 311), 1, 15.303934420060337)
((131, 109, 115, 274, 493, 674, 968, 311), 1, 15.310823917269015)
((131, 109, 115, 274, 493, 674, 968, 311), 1, 15.321734901179077)
((131, 109, 115, 274, 493, 674, 968, 311), 1, 15.329542960003513)
((131, 109, 115, 274, 493, 674, 968, 311), 1, 15.341383909149638)
((131, 109, 115, 274, 493, 674, 968, 311), 1, 15.349615042287475)
((131, 109, 115, 274, 493, 674, 968, 311), 1, 15.360638351857565)
((131, 109, 115, 274, 493, 674, 968, 311), 1, 15.37781676548854)
((131, 109, 115, 274, 493, 674, 968, 311), 1, 15.391314660665321)
((131, 109, 115, 274, 493, 674, 968, 311), 1, 15.398977323330838)
((131, 109, 115, 274, 493, 674, 968, 311), 1, 15.410313662278364)
((131, 109, 115, 274, 493, 674, 968, 311), 1, 15.422517246550262)
((131, 109, 115, 274, 493, 674, 968, 311), 1, 15.429926748844956)
((131, 109, 115, 274, 493, 674, 968, 311), 1, 15.447898284268307)
((131, 109, 115, 274, 493, 674, 968, 311), 1, 15.461978334261778)
((131, 109, 115, 274, 493, 674, 968, 311), 1, 15.473719501730214)
((131, 109, 115, 274, 493, 674, 968, 311), 1, 15.488434733374804)
((131, 109, 115, 274, 493, 674, 968, 311), 1, 15.498847379077436)
((131, 109, 115, 274, 493, 674, 968, 311), 1, 15.510325122916772)
((131, 109, 115, 274, 493, 674, 968, 311), 1, 15.518007741917828)
((131, 109, 115, 274, 493, 674, 968, 311), 1, 15.529492898110362)
((131, 109, 115, 274, 493, 674, 968, 311), 1, 15.538323861676366)
((131, 109, 115, 274, 493, 674, 968, 311), 1, 15.548373302072209)
((131, 109, 115, 274, 493, 674, 968, 311), 1, 15.55743347840639)
((131, 109, 115, 274, 493, 674, 968, 311), 1, 15.567900861486496)
((131, 109, 115, 274, 493, 674, 968, 311), 1, 15.58540085721014)
((131, 109, 115, 274, 493, 674, 968, 311), 1, 15.59684096910246)
((131, 109, 115, 274, 493, 674, 968, 311), 1, 15.604962627485348)
((131, 109, 115, 274, 493, 674, 968, 311), 1, 15.615619310662556)
((131, 109, 115, 274, 493, 674, 968, 311), 1, 15.624021498105003)
((131, 109, 115, 274, 493, 674, 968, 311), 1, 15.634097166827553)
((131, 109, 115, 274, 493, 674, 968, 311), 1, 15.64385182363845)
((131, 109, 115, 274, 493, 674, 968, 311), 1, 15.654394470612585)
((131, 109, 115, 274, 493, 674, 968, 311), 1, 15.665855679202476)
((131, 109, 115, 274, 493, 674, 968, 311), 1, 15.673541719289624)
((131, 109, 115, 274, 493, 674, 968, 311), 1, 15.68759040932725)
((131, 109, 115, 274, 493, 674, 968, 311), 1, 15.695793033414319)
((131, 109, 115, 274, 493, 674, 968, 311), 1, 15.706394979214052)
((131, 109, 115, 274, 493, 674, 968, 311), 1, 15.716146214938856)
((131, 109, 115, 274, 493, 674, 968, 311), 1, 15.726165435740885)
((131, 109, 115, 274, 493, 674, 968, 311), 1, 15.736991462679656)
((131, 109, 115, 274, 493, 674, 968, 311), 1, 15.745300140435583)
((131, 109, 115, 274, 493, 674, 968, 311), 1, 15.757389688504409)
((131, 109, 115, 274, 493, 674, 968, 311), 1, 15.765468013130128)
((131, 109, 115, 274, 493, 674, 968, 311), 1, 15.778130022938383)
((131, 109, 115, 274, 493, 674, 968, 311), 1, 15.792049852066535)
((131, 109, 115, 274, 493, 674, 968, 311), 1, 15.799311677478249)
((131, 109, 115, 274, 493, 674, 968, 311), 1, 15.809499671860825)
((131, 109, 115, 274, 493, 674, 968, 311), 1, 15.81949950650833)
((131, 109, 115, 274, 493, 674, 968, 311), 1, 15.829075126480404)
((131, 109, 115, 274, 493, 674, 968, 311), 1, 15.841261035140827)
((131, 109, 115, 274, 493, 674, 968, 311), 1, 15.848477816252325)
((131, 109, 115, 274, 493, 674, 968, 311), 1, 15.858765022131577)
((131, 109, 115, 274, 493, 674, 968, 311), 1, 15.866668871366592)
((131, 109, 115, 274, 493, 674, 968, 311), 1, 15.877920253342829)
((131, 109, 115, 274, 493, 674, 968, 311), 1, 15.889931116431534)
((131, 109, 115, 274, 493, 674, 968, 311), 1, 15.898733000765754)
((131, 109, 115, 274, 493, 674, 968, 311), 1, 15.90930871823878)
((131, 109, 115, 274, 493, 674, 968, 311), 1, 15.92120668548644)
((131, 109, 115, 274, 493, 674, 968, 311), 1, 15.933657728319009)
((131, 109, 115, 274, 493, 674, 968, 311), 1, 15.945971357526874)
((131, 109, 115, 274, 493, 674, 968, 311), 1, 15.955779611353217)
((131, 109, 115, 274, 493, 674, 968, 311), 1, 15.965692778486385)
((131, 109, 115, 274, 493, 674, 968, 311), 1, 15.976323233336888)
((131, 109, 115, 274, 493, 674, 968, 311), 1, 15.993790158561639)
((131, 109, 115, 274, 493, 674, 968, 311), 1, 16.003659421756627)
((131, 109, 115, 274, 493, 674, 968, 311), 1, 16.01488001395803)
((131, 109, 115, 274, 493, 674, 968, 311), 1, 16.023558169011917)
((131, 109, 115, 274, 493, 674, 968, 311), 1, 16.035944781389748)
((131, 109, 115, 274, 493, 674, 968, 311), 1, 16.04584768526464)
((131, 109, 115, 274, 493, 674, 968, 311), 1, 16.055065231559063)
((131, 109, 115, 274, 493, 674, 968, 311), 1, 16.065699677676673)
((131, 109, 115, 274, 493, 674, 968, 311), 1, 16.074332788430343)
((131, 109, 115, 274, 493, 674, 968, 311), 1, 16.087732042291467)
((131, 109, 115, 274, 493, 674, 968, 311), 1, 16.104075710915943)
((131, 109, 115, 274, 493, 674, 968, 311), 1, 16.11298535946207)
((131, 109, 115, 274, 493, 674, 968, 311), 1, 16.123057036917512)
((131, 109, 115, 274, 493, 674, 968, 311), 1, 16.13380837014327)
((131, 109, 115, 274, 493, 674, 968, 311), 1, 16.14280069493662)
((131, 109, 115, 274, 493, 674, 968, 311), 1, 16.153710538484653)
((131, 109, 115, 274, 493, 674, 968, 311), 1, 16.161955926147876)
((131, 109, 115, 274, 493, 674, 968, 311), 1, 16.17224769347525)
((131, 109, 115, 274, 493, 674, 968, 311), 1, 16.180142989995034)
((131, 109, 115, 274, 493, 674, 968, 311), 1, 16.195598886778587)
((131, 109, 115, 274, 493, 674, 968, 311), 1, 16.209665822608702)
((131, 109, 115, 274, 493, 674, 968, 311), 1, 16.2207227728587)
((131, 109, 115, 274, 493, 674, 968, 311), 1, 16.228812501104727)
((131, 109, 115, 274, 493, 674, 968, 311), 1, 16.240363798295046)
((131, 109, 115, 274, 493, 674, 968, 311), 1, 16.249592748209775)
((131, 109, 115, 274, 493, 674, 968, 311), 1, 16.260318423289842)
((131, 109, 115, 274, 493, 674, 968, 311), 1, 16.27142554946919)
((131, 109, 115, 274, 493, 674, 968, 311), 1, 16.279836289626868)
((131, 109, 115, 274, 493, 674, 968, 311), 1, 16.2907609578813)
((131, 109, 115, 274, 493, 674, 968, 311), 1, 16.30663194644404)
((131, 109, 115, 274, 493, 674, 968, 311), 1, 16.316749808561724)
((131, 109, 115, 274, 493, 674, 968, 311), 1, 16.328436238652685)
((131, 109, 115, 274, 493, 674, 968, 311), 1, 16.337752996443783)
((131, 109, 115, 274, 493, 674, 968, 311), 1, 16.347642215974304)
((131, 109, 115, 274, 493, 674, 968, 311), 1, 16.35668471669701)
((131, 109, 115, 274, 493, 674, 968, 311), 1, 16.37029322699077)
((131, 109, 115, 274, 493, 674, 968, 311), 1, 16.380504598794978)
((131, 109, 115, 274, 493, 674, 968, 311), 1, 16.38947981815787)
((131, 109, 115, 274, 493, 674, 968, 311), 1, 16.405537255912634)
((131, 109, 115, 274, 493, 674, 968, 311), 1, 16.415826742515947)
((131, 109, 115, 274, 493, 674, 968, 311), 3, 16.426416714514357)
((131, 109, 115, 274, 493, 674, 968, 311), 3, 16.436706771298685)
((131, 109, 115, 274, 493, 674, 968, 311), 3, 16.454024879278425)
((131, 109, 115, 274, 493, 674, 968, 311), 3, 16.468802830834704)
((131, 109, 115, 274, 493, 674, 968, 311), 3, 16.47813954496134)
((131, 109, 115, 274, 493, 674, 968, 311), 3, 16.487872534893654)
((131, 109, 115, 274, 493, 674, 968, 311), 3, 16.50419510682056)
((131, 109, 115, 274, 493, 674, 968, 311), 3, 16.516331409732647)
((131, 109, 115, 274, 493, 674, 968, 311), 3, 16.525970319797427)
((131, 109, 115, 274, 493, 674, 968, 311), 3, 16.536680599990078)
((131, 109, 115, 274, 493, 674, 968, 311), 3, 16.545165463679755)
((131, 109, 115, 274, 493, 674, 968, 311), 3, 16.556156843112984)
((131, 109, 115, 274, 493, 674, 968, 311), 3, 16.56418613217138)
((131, 109, 115, 274, 493, 674, 968, 311), 3, 16.573246878686575)
((131, 109, 115, 274, 493, 674, 968, 311), 3, 16.58096769981566)
((131, 109, 115, 274, 493, 674, 968, 311), 3, 16.589335106216172)
((131, 109, 115, 274, 493, 674, 968, 311), 3, 16.603831958531874)
((131, 109, 115, 274, 493, 674, 968, 311), 3, 16.620354093814164)
((131, 109, 115, 274, 493, 674, 968, 311), 3, 16.627975703446573)
((131, 109, 115, 274, 493, 674, 968, 311), 3, 16.63971573055298)
((131, 109, 115, 274, 493, 674, 968, 311), 3, 16.64779348499768)
((131, 109, 115, 274, 493, 674, 968, 311), 3, 16.658788855698017)
((131, 109, 115, 274, 493, 674, 968, 311), 3, 16.666832969462817)
((131, 109, 115, 274, 493, 674, 968, 311), 3, 16.676933155969024)
((131, 109, 115, 274, 493, 674, 968, 311), 3, 16.687512294528144)
((131, 109, 115, 274, 493, 674, 968, 311), 3, 16.695650488160478)
((131, 109, 115, 274, 493, 674, 968, 311), 3, 16.703739646225486)
((131, 109, 115, 274, 493, 674, 968, 311), 3, 16.715843448819697)
((131, 109, 115, 274, 493, 674, 968, 311), 3, 16.728092647572826)
((131, 109, 115, 274, 493, 674, 968, 311), 3, 16.739899385858028)
((131, 109, 115, 274, 493, 674, 968, 311), 3, 16.747389853856905)
((131, 109, 115, 274, 493, 674, 968, 311), 3, 16.760855818896825)
((131, 109, 115, 274, 493, 674, 968, 311), 3, 16.77022959478946)
((131, 109, 115, 274, 493, 674, 968, 311), 3, 16.78054759044354)
((131, 109, 115, 274, 493, 674, 968, 311), 3, 16.789169867757916)
((131, 109, 115, 274, 493, 674, 968, 311), 3, 16.799946859129367)
((131, 109, 115, 274, 493, 674, 968, 311), 3, 16.81420765650471)
((131, 109, 115, 274, 493, 674, 968, 311), 3, 16.82819305644963)
((131, 109, 115, 274, 493, 674, 968, 311), 3, 16.835151545561168)
((131, 109, 115, 274, 493, 674, 968, 311), 3, 16.845080107581754)
((131, 109, 115, 274, 493, 674, 968, 311), 3, 16.853336328684268)
((131, 109, 115, 274, 493, 674, 968, 311), 3, 16.86291080829431)
((131, 109, 115, 274, 493, 674, 968, 311), 3, 16.871185275189315)
((131, 109, 115, 274, 493, 674, 968, 311), 3, 16.88137840120103)
((131, 109, 115, 274, 493, 674, 968, 311), 3, 16.89018142589728)
((131, 109, 115, 274, 493, 674, 968, 311), 3, 16.901546273895573)
((131, 109, 115, 274, 493, 674, 968, 311), 3, 16.911007857664572)
((131, 109, 115, 274, 493, 674, 968, 311), 3, 16.927138278589304)
((131, 109, 115, 274, 493, 674, 968, 311), 3, 16.938031586887888)
((131, 109, 115, 274, 493, 674, 968, 311), 3, 16.94730558110283)
((131, 109, 115, 274, 493, 674, 968, 311), 3, 16.957647524359558)
((131, 109, 115, 274, 493, 674, 968, 311), 3, 16.968551666097436)
((131, 109, 115, 274, 493, 674, 968, 311), 3, 16.97726460219326)
((131, 109, 115, 274, 493, 674, 968, 311), 3, 16.988411641043683)
((131, 109, 115, 274, 493, 674, 968, 311), 3, 16.99665132689675)
((131, 109, 115, 274, 493, 674, 968, 311), 3, 17.01100335323455)
((131, 109, 115, 274, 493, 674, 968, 311), 3, 17.023429308102443)
((131, 109, 115, 274, 493, 674, 968, 311), 3, 17.031468290238102)
((131, 109, 115, 274, 493, 674, 968, 311), 3, 17.042254404505798)
((131, 109, 115, 274, 493, 674, 968, 311), 3, 17.053963641837374)
((131, 109, 115, 274, 493, 674, 968, 311), 3, 17.061033886427925)
((131, 109, 115, 274, 493, 674, 968, 311), 3, 17.071574822859013)
((131, 109, 115, 274, 493, 674, 968, 311), 3, 17.079539111281658)
((131, 109, 115, 274, 493, 674, 968, 311), 3, 17.090817861946633)
((131, 109, 115, 274, 493, 674, 968, 311), 3, 17.09913737314185)
((131, 109, 115, 274, 493, 674, 968, 311), 3, 17.110342570455842)
((131, 109, 115, 274, 493, 674, 968, 311), 3, 17.119652486074756)
((131, 109, 115, 274, 493, 674, 968, 311), 3, 17.131241985393103)
((131, 109, 115, 274, 493, 674, 968, 311), 3, 17.142882801002834)
((131, 109, 115, 274, 493, 674, 968, 311), 3, 17.15234096368574)
((131, 109, 115, 274, 493, 674, 968, 311), 3, 17.161928557459138)
((131, 109, 115, 274, 493, 674, 968, 311), 3, 17.1710474624379)
((131, 109, 115, 274, 493, 674, 968, 311), 3, 17.180364220228995)
((131, 109, 115, 274, 493, 674, 968, 311), 3, 17.19049576669105)
((131, 109, 115, 274, 493, 674, 968, 311), 3, 17.200538935095725)
((131, 109, 115, 274, 493, 674, 968, 311), 3, 17.211171100489274)
((131, 109, 115, 274, 493, 674, 968, 311), 3, 17.22617199282256)
((131, 109, 115, 274, 493, 674, 968, 311), 3, 17.235637567858667)
((131, 109, 115, 274, 493, 674, 968, 311), 3, 17.2457942022854)
((131, 109, 115, 274, 493, 674, 968, 311), 3, 17.25452709471676)
((131, 109, 115, 274, 493, 674, 968, 311), 3, 17.26398753812373)
((131, 109, 115, 274, 493, 674, 968, 311), 3, 17.27224261886421)
((131, 109, 115, 274, 493, 674, 968, 311), 3, 17.28198245096871)
((131, 109, 115, 274, 493, 674, 968, 311), 3, 17.291189734004856)
((131, 109, 115, 274, 493, 674, 968, 311), 3, 17.301860101526433)
((131, 109, 115, 274, 493, 674, 968, 311), 3, 17.312099982381408)
((131, 109, 115, 274, 493, 674, 968, 311), 3, 17.32281881528929)
((131, 109, 115, 274, 493, 674, 968, 311), 3, 17.33882778765775)
((131, 109, 115, 274, 493, 674, 968, 311), 3, 17.351087249669153)
((131, 109, 115, 274, 493, 674, 968, 311), 3, 17.358974563654723)
((131, 109, 115, 274, 493, 674, 968, 311), 3, 17.369191067088067)
((131, 109, 115, 274, 493, 674, 968, 311), 3, 17.376745395360665)
((131, 109, 115, 274, 493, 674, 968, 311), 3, 17.38742089451138)
((131, 109, 115, 274, 493, 674, 968, 311), 3, 17.395841327746318)
((131, 109, 115, 274, 493, 674, 968, 311), 3, 17.406142788150955)
((131, 109, 115, 274, 493, 674, 968, 311), 3, 17.420958371654248)
((131, 109, 115, 274, 493, 674, 968, 311), 3, 17.437780992331636)
((131, 109, 115, 274, 493, 674, 968, 311), 3, 17.454818571251817)
((131, 109, 115, 274, 493, 674, 968, 311), 3, 17.463047993846608)
((131, 109, 115, 274, 493, 674, 968, 311), 3, 17.47395897775667)
((131, 109, 115, 274, 493, 674, 968, 311), 3, 17.4824569556097)
((131, 109, 115, 274, 493, 674, 968, 311), 3, 17.49244823754197)
((131, 109, 115, 274, 493, 674, 968, 311), 3, 17.50413979926207)
((131, 109, 115, 274, 493, 674, 968, 311), 3, 17.510759030669465)
((131, 109, 115, 274, 493, 674, 968, 311), 3, 17.523256828345296)
((131, 109, 115, 274, 493, 674, 968, 311), 3, 17.541313320739935)
((131, 109, 115, 274, 493, 674, 968, 311), 3, 17.55086784401444)
((131, 109, 115, 274, 493, 674, 968, 311), 3, 17.56022850574372)
((131, 109, 115, 274, 493, 674, 968, 311), 3, 17.568623280832966)
((131, 109, 115, 274, 493, 674, 968, 311), 3, 17.57788758197065)
((131, 109, 115, 274, 493, 674, 968, 311), 3, 17.586247005836942)
((131, 109, 115, 274, 493, 674, 968, 311), 3, 17.595792976396215)
((131, 109, 115, 274, 493, 674, 968, 311), 3, 17.60476192376794)
((131, 109, 115, 274, 493, 674, 968, 311), 3, 17.614480088993854)
((131, 109, 115, 274, 493, 674, 968, 311), 3, 17.627688332214827)
((131, 109, 115, 274, 493, 674, 968, 311), 3, 17.636701183524735)
((131, 109, 115, 274, 493, 674, 968, 311), 3, 17.64592443162931)
((131, 109, 115, 274, 493, 674, 968, 311), 3, 17.6556973342327)
((131, 109, 115, 274, 493, 674, 968, 311), 3, 17.66553295674778)
((131, 109, 115, 274, 493, 674, 968, 311), 3, 17.674960329655857)
((131, 109, 115, 274, 493, 674, 968, 311), 3, 17.684312438669906)
((131, 109, 115, 274, 493, 674, 968, 311), 3, 17.69530210756009)
((131, 109, 115, 274, 493, 674, 968, 311), 3, 17.70358284644626)
((131, 109, 115, 274, 493, 674, 968, 311), 3, 17.71527725907144)
((131, 109, 115, 274, 493, 674, 968, 311), 3, 17.72968915441585)
((131, 109, 115, 274, 493, 674, 968, 311), 3, 17.74266077251545)
((131, 109, 115, 274, 493, 674, 968, 311), 3, 17.753375614156226)
((131, 109, 115, 274, 493, 674, 968, 311), 3, 17.763118867346815)
((131, 109, 115, 274, 493, 674, 968, 311), 3, 17.772269132281426)
((131, 109, 115, 274, 493, 674, 968, 311), 3, 17.784392891211173)
((131, 109, 115, 274, 493, 674, 968, 311), 3, 17.7916849362167)
((131, 109, 115, 274, 493, 674, 968, 311), 3, 17.80269969307156)
((131, 109, 115, 274, 493, 674, 968, 311), 3, 17.811556314783253)
((131, 109, 115, 274, 493, 674, 968, 311), 3, 17.82326783283889)
((131, 109, 115, 274, 493, 674, 968, 311), 3, 17.840229007503012)
((131, 109, 115, 274, 493, 674, 968, 311), 3, 17.85262474277709)
((131, 109, 115, 274, 493, 674, 968, 311), 3, 17.858729670908623)
((131, 109, 115, 274, 493, 674, 968, 311), 3, 17.87193905449163)
((131, 109, 115, 274, 493, 674, 968, 311), 3, 17.87962053313065)
((131, 109, 115, 274, 493, 674, 968, 311), 3, 17.89143297322601)
((131, 109, 115, 274, 493, 674, 968, 311), 0, 17.90171162639003)
((131, 109, 115, 274, 493, 674, 968, 311), 0, 17.91038807090087)
((131, 109, 115, 274, 493, 674, 968, 311), 0, 17.921820770439993)
((131, 109, 115, 274, 493, 674, 968, 311), 0, 17.93311491599238)
((131, 109, 115, 274, 493, 674, 968, 311), 0, 17.951650930620943)
((131, 109, 115, 274, 493, 674, 968, 311), 2, 17.962142831484712)
((131, 109, 115, 274, 493, 674, 968, 311), 2, 17.973241975129845)
((131, 109, 115, 274, 493, 674, 968, 311), 2, 17.9801565603032)
((131, 109, 115, 274, 493, 674, 968, 311), 2, 17.990071437979417)
((131, 109, 115, 274, 493, 674, 968, 311), 2, 17.996857732424314)
((131, 109, 115, 274, 493, 674, 968, 311), 2, 18.007601653296874)
((131, 109, 115, 274, 493, 674, 968, 311), 2, 18.01360394884564)
((131, 109, 115, 274, 493, 674, 968, 311), 2, 18.023045576279102)
((131, 109, 115, 274, 493, 674, 968, 311), 2, 18.030934030626703)
((131, 109, 115, 274, 493, 674, 968, 311), 2, 18.044063018686543)
((131, 109, 115, 274, 493, 674, 968, 311), 2, 18.051339668804655)
((131, 109, 115, 274, 493, 674, 968, 311), 2, 18.060423222560466)
((131, 109, 115, 274, 493, 674, 968, 311), 2, 18.06805794635623)
((131, 109, 115, 274, 493, 674, 968, 311), 2, 18.076636319732426)
((131, 109, 115, 274, 493, 674, 968, 311), 2, 18.083802354733557)
((131, 109, 115, 274, 493, 674, 968, 311), 2, 18.0965641462195)
((131, 109, 115, 274, 493, 674, 968, 311), 2, 18.107261882429814)
((131, 109, 115, 274, 493, 674, 968, 311), 2, 18.119508230277866)
((131, 109, 115, 274, 493, 674, 968, 311), 2, 18.132850466037453)
((131, 109, 115, 274, 493, 674, 968, 311), 2, 18.14777438393367)
((131, 109, 115, 274, 493, 674, 968, 311), 2, 18.15724280987485)
((131, 109, 115, 274, 493, 674, 968, 311), 2, 18.167333873484814)
((131, 109, 115, 274, 493, 674, 968, 311), 2, 18.175137370861126)
((131, 109, 115, 274, 493, 674, 968, 311), 2, 18.18570624616197)
((131, 109, 115, 274, 493, 674, 968, 311), 2, 18.194034880253433)
((131, 109, 115, 274, 493, 674, 968, 311), 2, 18.20450226333354)
((131, 109, 115, 274, 493, 674, 968, 311), 2, 18.216316984152957)
((131, 109, 115, 274, 493, 674, 968, 311), 2, 18.223671749070178)
((131, 109, 115, 274, 493, 674, 968, 311), 2, 18.237850440379308)
((131, 109, 115, 274, 493, 674, 968, 311), 2, 18.25778681958161)
((131, 109, 115, 274, 493, 674, 968, 311), 2, 18.270395802555438)
((131, 109, 115, 274, 493, 674, 968, 311), 2, 18.278750094792592)
((131, 109, 115, 274, 493, 674, 968, 311), 2, 18.28961375367838)
((131, 109, 115, 274, 493, 674, 968, 311), 2, 18.300292673915187)
((131, 109, 115, 274, 493, 674, 968, 311), 2, 18.309552983785764)
((131, 109, 115, 274, 493, 674, 968, 311), 2, 18.321649374026773)
((131, 109, 115, 274, 493, 674, 968, 311), 2, 18.329727128471475)
((131, 109, 115, 274, 493, 674, 968, 311), 2, 18.340354732416902)
((131, 109, 115, 274, 493, 674, 968, 311), 2, 18.355746768926732)
((131, 109, 115, 274, 493, 674, 968, 311), 2, 18.36462277679295)
((131, 109, 115, 274, 493, 674, 968, 311), 2, 18.375900387095893)
((131, 109, 115, 274, 493, 674, 968, 311), 2, 18.38640426176098)
((131, 109, 115, 274, 493, 674, 968, 311), 2, 18.394812721194597)
((131, 109, 115, 274, 493, 674, 968, 311), 2, 18.405235630155506)
((131, 109, 115, 274, 493, 674, 968, 311), 2, 18.414207428432306)
((131, 109, 115, 274, 493, 674, 968, 311), 2, 18.42492341043511)
((131, 109, 115, 274, 493, 674, 968, 311), 2, 18.432816426230836)
((131, 109, 115, 274, 493, 674, 968, 311), 2, 18.461602014791637)
((131, 109, 115, 274, 493, 674, 968, 311), 2, 18.47644952843179)
((131, 109, 115, 274, 493, 674, 968, 311), 2, 18.48473596912812)
((131, 109, 115, 274, 493, 674, 968, 311), 2, 18.495623005435537)
((131, 109, 115, 274, 493, 674, 968, 311), 2, 18.503908305769833)
((131, 109, 115, 274, 493, 674, 968, 311), 2, 18.51551548069966)
((131, 109, 115, 274, 493, 674, 968, 311), 2, 18.522145545546344)
((131, 109, 115, 274, 493, 674, 968, 311), 2, 18.534809265897646)
((131, 109, 115, 274, 493, 674, 968, 311), 2, 18.550923721753946)
((131, 109, 115, 274, 493, 674, 968, 311), 2, 18.56553632081577)
((131, 109, 115, 274, 493, 674, 968, 311), 2, 18.57311630723406)
((131, 109, 115, 274, 493, 674, 968, 311), 2, 18.583893868786525)
((131, 109, 115, 274, 493, 674, 968, 311), 2, 18.591293678003957)
((131, 109, 115, 274, 493, 674, 968, 311), 2, 18.6021259769339)
((131, 109, 115, 274, 493, 674, 968, 311), 2, 18.61222445289706)
((131, 109, 115, 274, 493, 674, 968, 311), 2, 18.62315425278063)
((131, 109, 115, 274, 493, 674, 968, 311), 2, 18.635105817043737)
((131, 109, 115, 274, 493, 674, 968, 311), 2, 18.644296564830437)
((131, 109, 115, 274, 493, 674, 968, 311), 2, 18.66253722569304)
((131, 109, 115, 274, 493, 674, 968, 311), 2, 18.67392944238007)
((131, 109, 115, 274, 493, 674, 968, 311), 2, 18.686419257521685)
((131, 109, 115, 274, 493, 674, 968, 311), 2, 18.69386924266847)
((131, 109, 115, 274, 493, 674, 968, 311), 2, 18.70446149539094)
((131, 109, 115, 274, 493, 674, 968, 311), 2, 18.712341967204328)
((131, 109, 115, 274, 493, 674, 968, 311), 2, 18.725407094990448)
((131, 109, 115, 274, 493, 674, 968, 311), 2, 18.73519083103313)
((131, 109, 115, 274, 493, 674, 968, 311), 2, 18.74484399562329)
((131, 109, 115, 274, 493, 674, 968, 311), 2, 18.75728648574063)
((131, 109, 115, 274, 493, 674, 968, 311), 2, 18.77425849384404)
((131, 109, 115, 274, 493, 674, 968, 311), 2, 18.783339196694776)
((131, 109, 115, 274, 493, 674, 968, 311), 2, 18.792218625647084)
((131, 109, 115, 274, 493, 674, 968, 311), 2, 18.80122292424176)
((131, 109, 115, 274, 493, 674, 968, 311), 2, 18.810778017697277)
((131, 109, 115, 274, 493, 674, 968, 311), 2, 18.821881722790533)
((131, 109, 115, 274, 493, 674, 968, 311), 2, 18.8307149670806)
((131, 109, 115, 274, 493, 674, 968, 311), 2, 18.842534819529156)
((131, 109, 115, 274, 493, 674, 968, 311), 2, 18.851414248481465)
((131, 109, 115, 274, 493, 674, 968, 311), 2, 18.864529552196935)
((131, 109, 115, 274, 493, 674, 968, 311), 2, 18.877062701095717)
((131, 109, 115, 274, 493, 674, 968, 311), 2, 18.88604761353587)
((131, 109, 115, 274, 493, 674, 968, 311), 2, 18.896418065843363)
((131, 109, 115, 274, 493, 674, 968, 311), 2, 18.908733405594273)
((131, 109, 115, 274, 493, 674, 968, 311), 2, 18.91678493171227)
((131, 109, 115, 274, 493, 674, 968, 311), 2, 18.927735828293407)
((131, 109, 115, 274, 493, 674, 968, 311), 2, 18.936738416345037)
((131, 109, 115, 274, 493, 674, 968, 311), 2, 18.94769615509836)
((131, 109, 115, 274, 493, 674, 968, 311), 2, 18.965118036022897)
((131, 109, 115, 274, 493, 674, 968, 311), 2, 18.977108372595048)
((131, 109, 115, 274, 493, 674, 968, 311), 2, 18.985940476523083)
((131, 109, 115, 274, 493, 674, 968, 311), 2, 18.9983561681327)
((131, 109, 115, 274, 493, 674, 968, 311), 2, 19.00563281825081)
((131, 109, 115, 274, 493, 674, 968, 311), 2, 19.01672626008579)
((131, 109, 115, 274, 493, 674, 968, 311), 2, 19.02458278429653)
((131, 109, 115, 274, 493, 674, 968, 311), 2, 19.03598355369879)
((131, 109, 115, 274, 493, 674, 968, 311), 2, 19.04583799218738)
((131, 109, 115, 274, 493, 674, 968, 311), 2, 19.05722051579715)
((131, 109, 115, 274, 493, 674, 968, 311), 2, 19.07015963357887)
((131, 109, 115, 274, 493, 674, 968, 311), 2, 19.07874028767913)
((131, 109, 115, 274, 493, 674, 968, 311), 2, 19.089686622812145)
((131, 109, 115, 274, 493, 674, 968, 311), 2, 19.10080116134469)
((131, 109, 115, 274, 493, 674, 968, 311), 2, 19.108654834650356)
((131, 109, 115, 274, 493, 674, 968, 311), 2, 19.12048209945211)
((131, 109, 115, 274, 493, 674, 968, 311), 2, 19.129971622090864)
((131, 109, 115, 274, 493, 674, 968, 311), 2, 19.14250534117066)
((131, 109, 115, 274, 493, 674, 968, 311), 2, 19.154486554846567)
((131, 109, 115, 274, 493, 674, 968, 311), 2, 19.167569928425177)
((131, 109, 115, 274, 493, 674, 968, 311), 2, 19.17641343597352)
((131, 109, 115, 274, 493, 674, 968, 311), 2, 19.19054879352548)
((131, 109, 115, 274, 493, 674, 968, 311), 0, 19.201570392552522)
((131, 109, 115, 274, 493, 674, 968, 311), 3, 19.2102816181053)
((131, 109, 115, 274, 493, 674, 968, 311), 3, 19.22212199707041)
((131, 109, 115, 274, 493, 674, 968, 311), 3, 19.23116905924124)
((131, 109, 115, 274, 493, 674, 968, 311), 3, 19.24137586959732)
((131, 109, 115, 274, 493, 674, 968, 311), 3, 19.249783758849922)
((131, 109, 115, 274, 493, 674, 968, 311), 3, 19.261493566362514)
((131, 109, 115, 274, 493, 674, 968, 311), 3, 19.278612110986874)
((131, 109, 115, 274, 493, 674, 968, 311), 3, 19.289888010746772)
((131, 109, 115, 274, 493, 674, 968, 311), 3, 19.298102608635162)
((131, 109, 115, 274, 493, 674, 968, 311), 3, 19.309551843423733)
((131, 109, 115, 274, 493, 674, 968, 311), 3, 19.318514518804285)
((131, 109, 115, 274, 493, 674, 968, 311), 3, 19.327736056365815)
((131, 109, 115, 274, 493, 674, 968, 311), 3, 19.337681153635845)
((131, 109, 115, 274, 493, 674, 968, 311), 3, 19.348203274093425)
((131, 109, 115, 274, 493, 674, 968, 311), 3, 19.35803832642749)
((131, 109, 115, 274, 493, 674, 968, 311), 3, 19.36773254405076)
((131, 109, 115, 274, 493, 674, 968, 311), 3, 19.378793485567865)
((131, 109, 115, 274, 493, 674, 968, 311), 3, 19.388335464860027)
((131, 109, 115, 274, 493, 674, 968, 311), 3, 19.399294914156396)
((131, 109, 115, 274, 493, 674, 968, 311), 3, 19.406667924866106)
((131, 109, 115, 274, 493, 674, 968, 311), 3, 19.416473327787372)
((131, 109, 115, 274, 493, 674, 968, 311), 3, 19.424683934408655)
((131, 109, 115, 274, 493, 674, 968, 311), 3, 19.439250918989252)
((131, 109, 115, 274, 493, 674, 968, 311), 3, 19.45375119239105)
((131, 109, 115, 274, 493, 674, 968, 311), 3, 19.467685276044588)
((131, 109, 115, 274, 493, 674, 968, 311), 3, 19.474573632891232)
((131, 109, 115, 274, 493, 674, 968, 311), 3, 19.484877944200946)
((131, 109, 115, 274, 493, 674, 968, 311), 3, 19.49246933423954)
((131, 109, 115, 274, 493, 674, 968, 311), 3, 19.50358159204803)
((131, 109, 115, 274, 493, 674, 968, 311), 3, 19.513958886527707)
((131, 109, 115, 274, 493, 674, 968, 311), 3, 19.522657568098143)
((131, 109, 115, 274, 493, 674, 968, 311), 3, 19.532974423390193)
((131, 109, 115, 274, 493, 674, 968, 311), 3, 19.541535691335927)
((131, 109, 115, 274, 493, 674, 968, 311), 3, 19.552946723996467)
((131, 109, 115, 274, 493, 674, 968, 311), 3, 19.56060482521386)
((131, 109, 115, 274, 493, 674, 968, 311), 3, 19.574491013662108)
((131, 109, 115, 274, 493, 674, 968, 311), 3, 19.589181157342022)
((131, 109, 115, 274, 493, 674, 968, 311), 3, 19.598803532157355)
((131, 109, 115, 274, 493, 674, 968, 311), 3, 19.608435029868932)
((131, 109, 115, 274, 493, 674, 968, 311), 3, 19.61988084357141)
((131, 109, 115, 274, 493, 674, 968, 311), 3, 19.62800307213531)
((131, 109, 115, 274, 493, 674, 968, 311), 3, 19.64032354351536)
((131, 109, 115, 274, 493, 674, 968, 311), 3, 19.64934665808354)
((131, 109, 115, 274, 493, 674, 968, 311), 3, 19.659398379203445)
((131, 109, 115, 274, 493, 674, 968, 311), 3, 19.670465022530703)
((131, 109, 115, 274, 493, 674, 968, 311), 3, 19.685928331667455)
((131, 109, 115, 274, 493, 674, 968, 311), 3, 19.696931684902005)
((131, 109, 115, 274, 493, 674, 968, 311), 3, 19.708248067513992)
((131, 109, 115, 274, 493, 674, 968, 311), 3, 19.71612853932738)
((131, 109, 115, 274, 493, 674, 968, 311), 3, 19.729394370830907)
((131, 109, 115, 274, 493, 674, 968, 311), 3, 19.740386890626166)
((131, 109, 115, 274, 493, 674, 968, 311), 3, 19.748359731764044)
((131, 109, 115, 274, 493, 674, 968, 311), 3, 19.758721631356305)
((131, 109, 115, 274, 493, 674, 968, 311), 3, 19.766653419461075)
((131, 109, 115, 274, 493, 674, 968, 311), 3, 19.7810322443066)
((131, 109, 115, 274, 493, 674, 968, 311), 3, 19.791568619289567)
((131, 109, 115, 274, 493, 674, 968, 311), 3, 19.80084375386654)
((131, 109, 115, 274, 493, 674, 968, 311), 3, 19.80945861882772)
((131, 109, 115, 274, 493, 674, 968, 311), 3, 19.818599190685067)
((131, 109, 115, 274, 493, 674, 968, 311), 3, 19.83079365206072)
((131, 109, 115, 274, 493, 674, 968, 311), 3, 19.839447289330945)
((131, 109, 115, 274, 493, 674, 968, 311), 3, 19.851382318344605)
((131, 109, 115, 274, 493, 674, 968, 311), 3, 19.86113241370738)
((131, 109, 115, 274, 493, 674, 968, 311), 3, 19.870603120372625)
((131, 109, 115, 274, 493, 674, 968, 311), 3, 19.889656859363143)
((131, 109, 115, 274, 493, 674, 968, 311), 3, 19.90093903111421)
((131, 109, 115, 274, 493, 674, 968, 311), 3, 19.908843450530238)
((131, 109, 115, 274, 493, 674, 968, 311), 3, 19.91902460274063)
((131, 109, 115, 274, 493, 674, 968, 311), 3, 19.927693634898272)
((131, 109, 115, 274, 493, 674, 968, 311), 3, 19.938458082287383)
((131, 109, 115, 274, 493, 674, 968, 311), 3, 19.95209225072684)
((131, 109, 115, 274, 493, 674, 968, 311), 3, 19.960426016447443)
((131, 109, 115, 274, 493, 674, 968, 311), 3, 19.97195393621613)
((131, 109, 115, 274, 493, 674, 968, 311), 3, 19.98546950700439)
((131, 109, 115, 274, 493, 674, 968, 311), 3, 19.998144630975997)
((131, 109, 115, 274, 493, 674, 968, 311), 3, 20.008097140599226)
((131, 109, 115, 274, 493, 674, 968, 311), 3, 20.018297108783127)
((131, 109, 115, 274, 493, 674, 968, 311), 3, 20.025965473258797)
((131, 109, 115, 274, 493, 674, 968, 311), 3, 20.03800484539827)
((131, 109, 115, 274, 493, 674, 968, 311), 3, 20.047109495851647)
((131, 109, 115, 274, 493, 674, 968, 311), 3, 20.059793172538487)
((131, 109, 115, 274, 493, 674, 968, 311), 3, 20.072415269675663)
((131, 109, 115, 274, 493, 674, 968, 311), 3, 20.08674220804879)
((131, 109, 115, 274, 493, 674, 968, 311), 3, 20.098661842175034)
((131, 109, 115, 274, 493, 674, 968, 311), 3, 20.10951694834559)
((131, 109, 115, 274, 493, 674, 968, 311), 3, 20.118449974313346)
((131, 109, 115, 274, 493, 674, 968, 311), 3, 20.129040516492772)
((131, 109, 115, 274, 493, 674, 968, 311), 3, 20.14040479431005)
((131, 109, 115, 274, 493, 674, 968, 311), 3, 20.148841192613418)
((131, 109, 115, 274, 493, 674, 968, 311), 3, 20.160102267666915)
((131, 109, 115, 274, 493, 674, 968, 311), 3, 20.169279331109248)
((131, 109, 115, 274, 493, 674, 968, 311), 3, 20.17958592314302)
((131, 109, 115, 274, 493, 674, 968, 311), 3, 20.189637074081908)
((131, 109, 115, 274, 493, 674, 968, 311), 3, 20.203588833346924)
((131, 109, 115, 274, 493, 674, 968, 311), 3, 20.21474670563664)
((131, 109, 115, 274, 493, 674, 968, 311), 3, 20.224411273847107)
((131, 109, 115, 274, 493, 674, 968, 311), 3, 20.233234825059913)
((131, 109, 115, 274, 493, 674, 968, 311), 3, 20.243589312298976)
((131, 109, 115, 274, 493, 674, 968, 311), 3, 20.25325673141452)
((131, 109, 115, 274, 493, 674, 968, 311), 3, 20.26483140602647)
((131, 109, 115, 274, 493, 674, 968, 311), 3, 20.272992977080435)
((131, 109, 115, 274, 493, 674, 968, 311), 3, 20.284170235524673)
((131, 109, 115, 274, 493, 674, 968, 311), 3, 20.301068120096087)
((131, 109, 115, 274, 493, 674, 968, 311), 3, 20.31135874706143)
((131, 109, 115, 274, 493, 674, 968, 311), 3, 20.320947481196857)
((131, 109, 115, 274, 493, 674, 968, 311), 3, 20.333547341274436)
((131, 109, 115, 274, 493, 674, 968, 311), 3, 20.34167299092443)
((131, 109, 115, 274, 493, 674, 968, 311), 3, 20.353081742860905)
((131, 109, 115, 274, 493, 674, 968, 311), 3, 20.360868134806758)
((131, 109, 115, 274, 493, 674, 968, 311), 3, 20.372048814337088)
((131, 109, 115, 274, 493, 674, 968, 311), 3, 20.384603059933436)
((131, 109, 115, 274, 493, 674, 968, 311), 3, 20.393260688470768)
((131, 109, 115, 274, 493, 674, 968, 311), 3, 20.408387590808452)
((131, 109, 115, 274, 493, 674, 968, 311), 3, 20.420288979142207)
((131, 109, 115, 274, 493, 674, 968, 311), 3, 20.427322732147775)
((131, 109, 115, 274, 493, 674, 968, 311), 3, 20.438218891351436)
((131, 109, 115, 274, 493, 674, 968, 311), 3, 20.4568142048056)
((131, 109, 115, 274, 493, 674, 968, 311), 3, 20.466063111055867)
((131, 109, 115, 274, 493, 674, 968, 311), 3, 20.475414079707885)
((131, 109, 115, 274, 493, 674, 968, 311), 3, 20.4850877708146)
((131, 109, 115, 274, 493, 674, 968, 311), 3, 20.50045528954077)
((131, 109, 115, 274, 493, 674, 968, 311), 3, 20.510749337592205)
((131, 109, 115, 274, 493, 674, 968, 311), 3, 20.522551514429285)
((131, 109, 115, 274, 493, 674, 968, 311), 3, 20.530742164715033)
((131, 109, 115, 274, 493, 674, 968, 311), 3, 20.541115467927604)
((131, 109, 115, 274, 493, 674, 968, 311), 3, 20.549987484526714)
((131, 109, 115, 274, 493, 674, 968, 311), 3, 20.558899983977913)
((131, 109, 115, 274, 493, 674, 968, 311), 3, 20.56858222779986)
((131, 109, 115, 274, 493, 674, 968, 311), 3, 20.578543860319336)
((131, 109, 115, 274, 493, 674, 968, 311), 3, 20.587691274348867)
((131, 109, 115, 274, 493, 674, 968, 311), 3, 20.601830052986923)
((131, 109, 115, 274, 493, 674, 968, 311), 3, 20.610615402071694)
((131, 109, 115, 274, 493, 674, 968, 311), 3, 20.618510698591482)
((131, 109, 115, 274, 493, 674, 968, 311), 3, 20.6273496446917)
((131, 109, 115, 274, 493, 674, 968, 311), 3, 20.635511215745662)
((131, 109, 115, 274, 493, 674, 968, 311), 3, 20.64704939877263)
((131, 109, 115, 274, 493, 674, 968, 311), 3, 20.655041055884013)
((131, 109, 115, 274, 493, 674, 968, 311), 3, 20.665670940553497)
((131, 109, 115, 274, 493, 674, 968, 311), 3, 20.673502946980577)
((131, 109, 115, 274, 493, 674, 968, 311), 3, 20.684843847376225)
((131, 109, 115, 274, 493, 674, 968, 311), 3, 20.70137738627882)
((131, 109, 115, 274, 493, 674, 968, 311), 3, 20.709829179469605)
((131, 109, 115, 274, 493, 674, 968, 311), 3, 20.72123451031999)
((131, 109, 115, 274, 493, 674, 968, 311), 3, 20.732199661426513)
((131, 109, 115, 274, 493, 674, 968, 311), 3, 20.74058702416256)
((131, 109, 115, 274, 493, 674, 968, 311), 3, 20.75157099124259)
((131, 109, 115, 274, 493, 674, 968, 311), 3, 20.76003931968282)
((131, 109, 115, 274, 493, 674, 968, 311), 3, 20.77058139647594)
((131, 109, 115, 274, 493, 674, 968, 311), 3, 20.78254721526443)
((131, 109, 115, 274, 493, 674, 968, 311), 3, 20.79063181188132)
((131, 109, 115, 274, 493, 674, 968, 311), 3, 20.8059143736362)
((131, 109, 115, 274, 493, 674, 968, 311), 3, 20.8168304891754)
((131, 109, 115, 274, 493, 674, 968, 311), 3, 20.823735381271494)
((131, 109, 115, 274, 493, 674, 968, 311), 3, 20.83350486278879)
((131, 109, 115, 274, 493, 674, 968, 311), 3, 20.839692467167552)
((131, 109, 115, 274, 493, 674, 968, 311), 3, 20.849735635572227)
((131, 109, 115, 274, 493, 674, 968, 311), 3, 20.85712290080732)
((131, 109, 115, 274, 493, 674, 968, 311), 3, 20.866001189397597)
((131, 109, 115, 274, 493, 674, 968, 311), 3, 20.87449631634555)
((131, 109, 115, 274, 493, 674, 968, 311), 3, 20.88462729262659)
((131, 109, 115, 274, 493, 674, 968, 311), 3, 20.89274267901831)
((131, 109, 115, 274, 493, 674, 968, 311), 3, 20.902805233577503)
((131, 109, 115, 274, 493, 674, 968, 311), 3, 20.918998374413924)
((131, 109, 115, 274, 493, 674, 968, 311), 3, 20.92846166872597)
((131, 109, 115, 274, 493, 674, 968, 311), 3, 20.93940629331594)
((131, 109, 115, 274, 493, 674, 968, 311), 3, 20.946571758136056)
((131, 109, 115, 274, 493, 674, 968, 311), 3, 20.9562984760772)
((131, 109, 115, 274, 493, 674, 968, 311), 3, 20.964387063961194)
((131, 109, 115, 274, 493, 674, 968, 311), 3, 20.974511768251066)
((131, 109, 115, 274, 493, 674, 968, 311), 3, 20.981484511887988)
((131, 109, 115, 274, 493, 674, 968, 311), 3, 20.991726673467024)
((131, 109, 115, 274, 493, 674, 968, 311), 3, 20.999702935690994)
((131, 109, 115, 274, 493, 674, 968, 311), 3, 21.010408654435523)
((131, 109, 115, 274, 493, 674, 968, 311), 3, 21.018728165630744)
((131, 109, 115, 274, 493, 674, 968, 311), 3, 21.027754701285016)
((131, 109, 115, 274, 493, 674, 968, 311), 1, 21.03511858909848)
((131, 109, 115, 274, 493, 674, 968, 311), 1, 21.04393757886316)
((131, 109, 115, 274, 493, 674, 968, 311), 1, 21.05165554908717)
((131, 109, 115, 274, 493, 674, 968, 311), 1, 21.063319171937515)
((131, 109, 115, 274, 493, 674, 968, 311), 1, 21.071060519583153)
((131, 109, 115, 274, 493, 674, 968, 311), 1, 21.08202738123272)
((131, 109, 115, 274, 493, 674, 968, 311), 1, 21.092287218423234)
((131, 109, 115, 274, 493, 674, 968, 311), 1, 21.102571573397405)
((131, 109, 115, 274, 493, 674, 968, 311), 1, 21.113553259753374)
((131, 109, 115, 274, 493, 674, 968, 311), 1, 21.121812331760964)
((131, 109, 115, 274, 493, 674, 968, 311), 1, 21.13127049444387)
((131, 109, 115, 274, 493, 674, 968, 311), 1, 21.139440618213065)
((131, 109, 115, 274, 493, 674, 968, 311), 1, 21.150893274087725)
((131, 109, 115, 274, 493, 674, 968, 311), 1, 21.159247566324883)
((131, 109, 115, 274, 493, 674, 968, 311), 1, 21.170111795391684)
((131, 109, 115, 274, 493, 674, 968, 311), 1, 21.17925236724903)
((131, 109, 115, 274, 493, 674, 968, 311), 1, 21.18608541653719)
((131, 109, 115, 274, 493, 674, 968, 311), 1, 21.195748844385626)
((131, 109, 115, 274, 493, 674, 968, 311), 1, 21.20450853532471)
((131, 109, 115, 274, 493, 674, 968, 311), 1, 21.22020732922081)
((131, 109, 115, 274, 493, 674, 968, 311), 1, 21.22882903635417)
((131, 109, 115, 274, 493, 674, 968, 311), 1, 21.236872579937952)
((131, 109, 115, 274, 493, 674, 968, 311), 1, 21.244069404713915)
((131, 109, 115, 274, 493, 674, 968, 311), 1, 21.254163319228955)
((131, 109, 115, 274, 493, 674, 968, 311), 1, 21.263655692772783)
((131, 109, 115, 274, 493, 674, 968, 311), 1, 21.272373760497747)
((131, 109, 115, 274, 493, 674, 968, 311), 1, 21.28063853431549)
((131, 109, 115, 274, 493, 674, 968, 311), 1, 21.290409156194816)
((131, 109, 115, 274, 493, 674, 968, 311), 1, 21.298626604988286)
((131, 109, 115, 274, 493, 674, 968, 311), 1, 21.30825354125174)
((131, 109, 115, 274, 493, 674, 968, 311), 1, 21.322754384834553)
((131, 109, 115, 274, 493, 674, 968, 311), 1, 21.331374381424872)
((131, 109, 115, 274, 493, 674, 968, 311), 1, 21.33965854139714)
((131, 109, 115, 274, 493, 674, 968, 311), 1, 21.348267704548164)
((131, 109, 115, 274, 493, 674, 968, 311), 1, 21.35682384086476)
((131, 109, 115, 274, 493, 674, 968, 311), 1, 21.365504276642707)
((131, 109, 115, 274, 493, 674, 968, 311), 1, 21.375043405029796)
((131, 109, 115, 274, 493, 674, 968, 311), 1, 21.384060817787823)
((131, 109, 115, 274, 493, 674, 968, 311), 1, 21.394918774863456)
((131, 109, 115, 274, 493, 674, 968, 311), 1, 21.405296069343134)
((131, 109, 115, 274, 493, 674, 968, 311), 1, 21.420838063460007)
((131, 109, 115, 274, 493, 674, 968, 311), 1, 21.462965887780392)
((131, 109, 115, 274, 493, 674, 968, 311), 1, 21.47508394489999)
((131, 109, 115, 274, 493, 674, 968, 311), 1, 21.48629142293804)
((131, 109, 115, 274, 493, 674, 968, 311), 1, 21.505615997910855)
((131, 109, 115, 274, 493, 674, 968, 311), 1, 21.521736725758327)
((131, 109, 115, 274, 493, 674, 968, 311), 1, 21.536901260043027)
((131, 109, 115, 274, 493, 674, 968, 311), 1, 21.55252764095017)
((131, 109, 115, 274, 493, 674, 968, 311), 1, 21.568188802899257)
((131, 109, 115, 274, 493, 674, 968, 311), 1, 21.580363307939372)
((131, 109, 115, 274, 493, 674, 968, 311), 1, 21.588072725448146)
((131, 109, 115, 274, 493, 674, 968, 311), 1, 21.60703751620027)
((131, 109, 115, 274, 493, 674, 968, 311), 1, 21.622547009999263)
((131, 109, 115, 274, 493, 674, 968, 311), 1, 21.638373524442805)
((131, 109, 115, 274, 493, 674, 968, 311), 1, 21.649780565836235)
((131, 109, 115, 274, 493, 674, 968, 311), 1, 21.656895284545985)
((131, 109, 115, 274, 493, 674, 968, 311), 1, 21.668918691617026)
((131, 109, 115, 274, 493, 674, 968, 311), 1, 21.676909778547394)
((131, 109, 115, 274, 493, 674, 968, 311), 1, 21.68577267225026)
((131, 109, 115, 274, 493, 674, 968, 311), 1, 21.69412525394437)
((131, 109, 115, 274, 493, 674, 968, 311), 1, 21.702972182578804)
((131, 109, 115, 274, 493, 674, 968, 311), 1, 21.711467309526757)
((131, 109, 115, 274, 493, 674, 968, 311), 1, 21.72533525218251)
((131, 109, 115, 274, 493, 674, 968, 311), 1, 21.734742098574035)
((131, 109, 115, 274, 493, 674, 968, 311), 1, 21.742059801725254)
((131, 109, 115, 274, 493, 674, 968, 311), 1, 21.75314241012094)
((131, 109, 115, 274, 493, 674, 968, 311), 1, 21.76022918996094)
((131, 109, 115, 274, 493, 674, 968, 311), 1, 21.770825433950517)
((131, 109, 115, 274, 493, 674, 968, 311), 1, 21.778592439741846)
((131, 109, 115, 274, 493, 674, 968, 311), 1, 21.78805459369186)
((131, 109, 115, 274, 493, 674, 968, 311), 1, 21.795015363527458)
((131, 109, 115, 274, 493, 674, 968, 311), 1, 21.805293446510465)
((131, 109, 115, 274, 493, 674, 968, 311), 1, 21.81324747167483)
((131, 109, 115, 274, 493, 674, 968, 311), 1, 21.828496392749805)
((131, 109, 115, 274, 493, 674, 968, 311), 1, 21.839106321083754)
((131, 109, 115, 274, 493, 674, 968, 311), 1, 21.847365393091344)
