NoneNoneNoneNoneNoneNoneNoneNone(156, 48, 45, 98, 156, 334, 161, 147)(156, 48, 45, 98, 156, 334, 161, 147)(162, 56, 47, 93, 201, 342, 164, 146)(162, 56, 47, 93, 201, 342, 164, 146)(151, 59, 50, 93, 212, 352, 157, 153)(151, 59, 50, 93, 212, 352, 157, 153)(129, 56, 48, 88, 240, 397, 183, 189)(129, 56, 48, 88, 240, 397, 183, 189)(156, 54, 45, 86, 232, 387, 189, 183)(156, 54, 45, 86, 232, 387, 189, 183)(131, 51, 45, 81, 263, 351, 177, 184)(131, 51, 45, 81, 263, 351, 177, 184)(131, 43, 40, 72, 241, 352, 170, 201)(131, 43, 40, 72, 241, 352, 170, 201)(129, 37, 36, 71, 251, 310, 156, 183)(129, 37, 36, 71, 251, 310, 156, 183)(125, 41, 36, 74, 221, 291, 142, 164)(125, 41, 36, 74, 221, 291, 142, 164)(138, 43, 36, 74, 238, 350, 137, 192)(138, 43, 36, 74, 238, 350, 137, 192)(187, 49, 38, 77, 217, 396, 146, 202)(187, 49, 38, 77, 217, 396, 146, 202)(194, 49, 39, 89, 229, 392, 162, 180)(194, 49, 39, 89, 229, 392, 162, 180)(203, 50, 39, 86, 278, 471, 171, 191)(203, 50, 39, 86, 278, 471, 171, 191)(205, 50, 40, 83, 284, 433, 167, 188)(205, 50, 40, 83, 284, 433, 167, 188)(206, 48, 38, 82, 275, 434, 172, 209)(206, 48, 38, 82, 275, 434, 172, 209)(167, 48, 41, 114, 300, 455, 192, 200)(167, 48, 41, 114, 300, 455, 192, 200)(168, 101, 95, 341, 417, 492, 194, 232)(168, 101, 95, 341, 417, 492, 194, 232)(162, 114, 110, 367, 422, 432, 193, 226)(162, 114, 110, 367, 422, 432, 193, 226)(170, 115, 110, 369, 419, 427, 182, 226)(170, 115, 110, 369, 419, 427, 182, 226)(163, 117, 112, 375, 427, 410, 170, 181)(163, 117, 112, 375, 427, 410, 170, 181)(163, 117, 112, 375, 427, 410, 170, 181)(158, 114, 110, 371, 411, 399, 145, 183)(158, 114, 110, 371, 411, 399, 145, 183)(164, 74, 72, 194, 284, 446, 208, 274)(164, 74, 72, 194, 284, 446, 208, 274)(160, 53, 49, 138, 225, 442, 214, 279)(160, 53, 49, 138, 225, 442, 214, 279)(148, 49, 47, 136, 243, 444, 216, 273)(148, 49, 47, 136, 243, 444, 216, 273)(109, 46, 49, 129, 239, 507, 247, 274)(109, 46, 49, 129, 239, 507, 247, 274)(150, 45, 49, 116, 223, 474, 240, 281)(150, 45, 49, 116, 223, 474, 240, 281)(134, 36, 44, 92, 233, 402, 181, 179)(134, 36, 44, 92, 233, 402, 181, 179)(136, 35, 41, 86, 212, 397, 170, 162)(136, 35, 41, 86, 212, 397, 170, 162)(135, 35, 41, 103, 278, 522, 173, 162)(135, 35, 41, 103, 278, 522, 173, 162)(132, 35, 38, 99, 284, 417, 118, 155)(132, 35, 38, 99, 284, 417, 118, 155)(168, 41, 36, 95, 283, 435, 118, 148)(168, 41, 36, 95, 283, 435, 118, 148)(181, 44, 40, 91, 259, 456, 104, 146)(181, 44, 40, 91, 259, 456, 104, 146)(208, 52, 42, 108, 284, 453, 108, 174)(208, 52, 42, 108, 284, 453, 108, 174)(208, 55, 43, 92, 210, 361, 110, 173)(208, 55, 43, 92, 210, 361, 110, 173)(209, 55, 41, 82, 233, 386, 119, 176)(209, 55, 41, 82, 233, 386, 119, 176)(146, 53, 40, 85, 241, 347, 129, 168)(146, 53, 40, 85, 241, 347, 129, 168)(124, 53, 42, 92, 254, 414, 154, 149)(124, 53, 42, 92, 254, 414, 154, 149)(68, 47, 42, 89, 236, 431, 163, 127)(68, 47, 42, 89, 236, 431, 163, 127)(67, 46, 43, 84, 223, 389, 166, 122)(67, 46, 43, 84, 223, 389, 166, 122)(59, 42, 41, 83, 171, 363, 160, 123)(59, 42, 41, 83, 171, 363, 160, 123)(54, 45, 43, 80, 155, 403, 151, 120)(54, 45, 43, 80, 155, 403, 151, 120)(55, 47, 39, 72, 172, 358, 139, 93)(55, 47, 39, 72, 172, 358, 139, 93)(47, 44, 39, 43, 163, 360, 125, 72)(47, 44, 39, 43, 163, 360, 125, 72)(47, 44, 39, 43, 163, 360, 125, 72)(50, 48, 38, 40, 161, 392, 129, 169)(50, 48, 38, 40, 161, 392, 129, 169)(49, 47, 37, 53, 157, 398, 135, 170)(49, 47, 37, 53, 157, 398, 135, 170)(64, 46, 36, 58, 166, 393, 165, 201)(64, 46, 36, 58, 166, 393, 165, 201)(146, 67, 49, 61, 128, 365, 178, 258)(146, 67, 49, 61, 128, 365, 178, 258)(153, 68, 49, 62, 124, 351, 172, 261)(153, 68, 49, 62, 124, 351, 172, 261)(153, 67, 48, 63, 137, 344, 168, 263)(153, 67, 48, 63, 137, 344, 168, 263)(154, 69, 49, 53, 146, 336, 164, 270)(154, 69, 49, 53, 146, 336, 164, 270)(193, 70, 48, 51, 143, 307, 142, 252)(193, 70, 48, 51, 143, 307, 142, 252)(148, 46, 33, 49, 129, 250, 107, 194)(148, 46, 33, 49, 129, 250, 107, 194)(145, 48, 34, 49, 123, 234, 108, 206)(145, 48, 34, 49, 123, 234, 108, 206)(153, 44, 38, 63, 126, 363, 116, 212)(153, 44, 38, 63, 126, 363, 116, 212)(154, 44, 41, 66, 120, 375, 115, 211)(154, 44, 41, 66, 120, 375, 115, 211)(97, 42, 42, 63, 148, 372, 130, 209)(97, 42, 42, 63, 148, 372, 130, 209)(84, 42, 43, 62, 158, 371, 131, 210)(84, 42, 43, 62, 158, 371, 131, 210)(77, 39, 45, 61, 159, 376, 139, 201)(77, 39, 45, 61, 159, 376, 139, 201)(128, 49, 45, 51, 153, 224, 138, 183)(128, 49, 45, 51, 153, 224, 138, 183)(129, 50, 42, 48, 159, 252, 143, 207)(129, 50, 42, 48, 159, 252, 143, 207)(142, 52, 44, 50, 145, 361, 143, 213)(142, 52, 44, 50, 145, 361, 143, 213)(142, 53, 45, 51, 135, 365, 146, 213)(142, 53, 45, 51, 135, 365, 146, 213)(142, 53, 42, 51, 132, 367, 142, 237)(142, 53, 42, 51, 132, 367, 142, 237)(104, 49, 40, 47, 119, 360, 120, 217)(104, 49, 40, 47, 119, 360, 120, 217)(147, 52, 41, 57, 154, 504, 150, 210)(147, 52, 41, 57, 154, 504, 150, 210)(132, 53, 39, 58, 174, 432, 145, 208)(132, 53, 39, 58, 174, 432, 145, 208)(136, 53, 37, 59, 187, 441, 142, 222)(136, 53, 37, 59, 187, 441, 142, 222)(136, 53, 38, 56, 189, 464, 137, 191)(136, 53, 38, 56, 189, 464, 137, 191)(122, 50, 38, 54, 195, 479, 154, 195)(122, 50, 38, 54, 195, 479, 154, 195)(63, 44, 34, 53, 176, 304, 128, 174)(63, 44, 34, 53, 176, 304, 128, 174)(66, 40, 34, 62, 169, 389, 137, 193)(66, 40, 34, 62, 169, 389, 137, 193)(57, 45, 36, 65, 156, 380, 152, 174)(57, 45, 36, 65, 156, 380, 152, 174)(56, 45, 34, 65, 156, 422, 158, 211)(56, 45, 34, 65, 156, 422, 158, 211)(52, 42, 31, 68, 151, 430, 148, 181)(52, 42, 31, 68, 151, 430, 148, 181)(52, 43, 33, 63, 124, 434, 146, 185)(52, 43, 33, 63, 124, 434, 146, 185)(126, 47, 30, 52, 161, 365, 136, 185)(126, 47, 30, 52, 161, 365, 136, 185)(138, 45, 33, 45, 167, 356, 115, 187)(138, 45, 33, 45, 167, 356, 115, 187)(138, 44, 32, 53, 193, 406, 117, 186)(138, 44, 32, 53, 193, 406, 117, 186)(140, 44, 35, 51, 196, 383, 119, 238)(140, 44, 35, 51, 196, 383, 119, 238)(141, 43, 35, 49, 210, 389, 130, 241)(141, 43, 35, 49, 210, 389, 130, 241)(85, 41, 37, 51, 170, 377, 117, 226)(85, 41, 37, 51, 170, 377, 117, 226)(64, 37, 33, 54, 199, 398, 128, 224)(64, 37, 33, 54, 199, 398, 128, 224)(63, 39, 36, 50, 184, 447, 182, 209)(63, 39, 36, 50, 184, 447, 182, 209)(129, 40, 37, 68, 195, 444, 190, 168)(129, 40, 37, 68, 195, 444, 190, 168)(131, 39, 40, 68, 192, 436, 186, 152)(131, 39, 40, 68, 192, 436, 186, 152)(133, 34, 40, 70, 212, 439, 196, 144)(133, 34, 40, 70, 212, 439, 196, 144)(136, 36, 41, 71, 182, 422, 191, 153)(136, 36, 41, 71, 182, 422, 191, 153)(144, 39, 39, 70, 172, 265, 146, 133)(144, 39, 39, 70, 172, 265, 146, 133)(88, 39, 37, 64, 170, 299, 136, 109)(88, 39, 37, 64, 170, 299, 136, 109)(79, 41, 36, 65, 166, 365, 131, 108)(79, 41, 36, 65, 166, 365, 131, 108)(73, 42, 34, 61, 125, 364, 115, 114)(73, 42, 34, 61, 125, 364, 115, 114)(64, 40, 34, 61, 157, 412, 141, 137)(64, 40, 34, 61, 157, 412, 141, 137)(46, 35, 32, 78, 175, 374, 130, 138)(46, 35, 32, 78, 175, 374, 130, 138)(45, 36, 30, 71, 161, 339, 114, 169)(45, 36, 30, 71, 161, 339, 114, 169)(53, 39, 33, 76, 216, 321, 130, 178)(53, 39, 33, 76, 216, 321, 130, 178)(46, 38, 35, 91, 235, 315, 130, 179)(46, 38, 35, 91, 235, 315, 130, 179)(48, 38, 34, 92, 223, 251, 117, 173)(48, 38, 34, 92, 223, 251, 117, 173)(86, 45, 35, 77, 212, 294, 121, 187)(86, 45, 35, 77, 212, 294, 121, 187)(115, 43, 35, 81, 229, 297, 125, 166)(115, 43, 35, 81, 229, 297, 125, 166)(114, 41, 35, 96, 227, 238, 125, 155)(114, 41, 35, 96, 227, 238, 125, 155)(117, 46, 50, 306, 297, 411, 134, 146)(117, 46, 50, 306, 297, 411, 134, 146)(116, 49, 63, 356, 409, 420, 119, 124)(116, 49, 63, 356, 409, 420, 119, 124)(93, 44, 65, 363, 420, 406, 113, 81)(93, 44, 65, 363, 420, 406, 113, 81)(57, 49, 78, 466, 490, 410, 111, 58)(57, 49, 78, 466, 490, 410, 111, 58)(50, 48, 78, 487, 499, 394, 86, 51)(50, 48, 78, 487, 499, 394, 86, 51)(46, 60, 98, 439, 532, 222, 65, 49)(46, 60, 98, 439, 532, 222, 65, 49)(50, 70, 111, 482, 482, 196, 63, 45)(50, 70, 111, 482, 482, 196, 63, 45)(49, 76, 131, 485, 497, 166, 62, 42)(49, 76, 131, 485, 497, 166, 62, 42)(53, 82, 131, 418, 562, 143, 62, 40)(53, 82, 131, 418, 562, 143, 62, 40)(53, 83, 131, 432, 613, 139, 60, 41)(53, 83, 131, 432, 613, 139, 60, 41)(61, 112, 125, 394, 586, 111, 57, 40)(61, 112, 125, 394, 586, 111, 57, 40)(59, 109, 117, 314, 580, 104, 50, 37)(59, 109, 117, 314, 580, 104, 50, 37)(58, 109, 105, 343, 574, 92, 49, 38)(58, 109, 105, 343, 574, 92, 49, 38)(50, 113, 104, 389, 480, 85, 42, 34)(50, 113, 104, 389, 480, 85, 42, 34)(52, 120, 107, 351, 432, 84, 41, 34)(52, 120, 107, 351, 432, 84, 41, 34)(38, 88, 92, 366, 423, 69, 37, 31)(38, 88, 92, 366, 423, 69, 37, 31)(43, 93, 90, 376, 432, 68, 49, 70)(43, 93, 90, 376, 432, 68, 49, 70)(43, 93, 90, 376, 432, 68, 49, 70)(40, 95, 90, 393, 474, 74, 71, 90)(40, 95, 90, 393, 474, 74, 71, 90)(48, 106, 116, 354, 535, 93, 103, 94)(48, 106, 116, 354, 535, 93, 103, 94)(55, 106, 126, 450, 508, 100, 134, 99)(55, 106, 126, 450, 508, 100, 134, 99)(61, 108, 129, 434, 479, 119, 229, 109)(61, 108, 129, 434, 479, 119, 229, 109)(65, 102, 126, 418, 464, 159, 267, 104)(65, 102, 126, 418, 464, 159, 267, 104)(69, 97, 120, 383, 437, 162, 343, 104)(69, 97, 120, 383, 437, 162, 343, 104)(75, 78, 96, 424, 423, 239, 556, 151)(75, 78, 96, 424, 423, 239, 556, 151)(115, 94, 90, 361, 467, 510, 772, 307)(115, 94, 90, 361, 467, 510, 772, 307)(115, 94, 90, 361, 467, 510, 772, 307)(118, 97, 99, 365, 472, 583, 826, 319)(118, 97, 99, 365, 472, 583, 826, 319)(122, 104, 134, 372, 462, 639, 954, 327)(122, 104, 134, 372, 462, 639, 954, 327)(133, 129, 196, 559, 464, 763, 1037, 360)(133, 129, 196, 559, 464, 763, 1037, 360)(165, 145, 215, 530, 388, 846, 1160, 417)(165, 145, 215, 530, 388, 846, 1160, 417)(166, 138, 244, 669, 377, 761, 1122, 357)(166, 138, 244, 669, 377, 761, 1122, 357)(173, 141, 245, 728, 469, 737, 1116, 363)(173, 141, 245, 728, 469, 737, 1116, 363)(229, 167, 250, 740, 485, 803, 1113, 437)(229, 167, 250, 740, 485, 803, 1113, 437)(228, 161, 215, 643, 505, 712, 1055, 412)(228, 161, 215, 643, 505, 712, 1055, 412)(212, 150, 195, 635, 496, 664, 917, 355)(212, 150, 195, 635, 496, 664, 917, 355)(247, 151, 154, 488, 530, 625, 872, 334)(247, 151, 154, 488, 530, 625, 872, 334)(270, 161, 177, 436, 461, 605, 869, 344)(270, 161, 177, 436, 461, 605, 869, 344)(233, 139, 158, 449, 503, 551, 813, 255)(233, 139, 158, 449, 503, 551, 813, 255)(257, 141, 170, 467, 546, 633, 892, 261)(257, 141, 170, 467, 546, 633, 892, 261)(272, 147, 174, 472, 569, 719, 879, 258)(272, 147, 174, 472, 569, 719, 879, 258)(237, 147, 183, 475, 542, 741, 879, 266)(237, 147, 183, 475, 542, 741, 879, 266)(237, 147, 183, 475, 542, 741, 879, 266)(218, 136, 163, 465, 603, 762, 835, 245)(218, 136, 163, 465, 603, 762, 835, 245)(207, 123, 160, 460, 558, 702, 765, 234)(207, 123, 160, 460, 558, 702, 765, 234)(182, 110, 132, 396, 486, 606, 614, 245)(182, 110, 132, 396, 486, 606, 614, 245)(151, 96, 131, 367, 476, 391, 463, 227)(151, 96, 131, 367, 476, 391, 463, 227)(133, 83, 114, 335, 451, 327, 323, 199)(133, 83, 114, 335, 451, 327, 323, 199)(106, 79, 137, 453, 472, 245, 287, 192)(106, 79, 137, 453, 472, 245, 287, 192)(104, 84, 125, 418, 482, 182, 229, 173)(104, 84, 125, 418, 482, 182, 229, 173)(111, 92, 127, 425, 491, 159, 200, 158)(111, 92, 127, 425, 491, 159, 200, 158)(242, 145, 141, 521, 581, 184, 375, 425)(242, 145, 141, 521, 581, 184, 375, 425)(368, 212, 176, 582, 681, 197, 383, 510)(368, 212, 176, 582, 681, 197, 383, 510)(392, 247, 203, 658, 748, 235, 414, 581)(392, 247, 203, 658, 748, 235, 414, 581)(435, 292, 260, 768, 966, 281, 446, 604)(435, 292, 260, 768, 966, 281, 446, 604)(465, 329, 302, 884, 1085, 336, 525, 653)(465, 329, 302, 884, 1085, 336, 525, 653)(509, 363, 339, 935, 1110, 364, 449, 587)(509, 363, 339, 935, 1110, 364, 449, 587)(428, 330, 325, 910, 1073, 360, 455, 516)(428, 330, 325, 910, 1073, 360, 455, 516)(412, 303, 299, 826, 1029, 422, 465, 442)(412, 303, 299, 826, 1029, 422, 465, 442)(367, 262, 254, 741, 826, 512, 440, 413)(367, 262, 254, 741, 826, 512, 440, 413)(322, 209, 204, 594, 672, 731, 375, 323)(322, 209, 204, 594, 672, 731, 375, 323)(116, 84, 114, 411, 571, 719, 323, 170)(116, 84, 114, 411, 571, 719, 323, 170)(104, 77, 108, 368, 520, 725, 278, 155)(104, 77, 108, 368, 520, 725, 278, 155)(77, 75, 95, 258, 416, 679, 193, 106)(77, 75, 95, 258, 416, 679, 193, 106)(71, 62, 81, 209, 403, 593, 181, 90)(71, 62, 81, 209, 403, 593, 181, 90)(53, 51, 64, 198, 350, 210, 89, 72)(53, 51, 64, 198, 350, 210, 89, 72)(51, 50, 57, 194, 264, 181, 102, 67)(51, 50, 57, 194, 264, 181, 102, 67)(50, 52, 52, 182, 265, 237, 106, 74)(50, 52, 52, 182, 265, 237, 106, 74)(69, 48, 50, 180, 289, 340, 126, 104)(69, 48, 50, 180, 289, 340, 126, 104)(89, 61, 57, 173, 352, 464, 133, 107)(89, 61, 57, 173, 352, 464, 133, 107)(92, 66, 64, 150, 352, 527, 137, 108)(92, 66, 64, 150, 352, 527, 137, 108)(94, 68, 66, 149, 350, 593, 125, 122)(94, 68, 66, 149, 350, 593, 125, 122)(145, 68, 67, 166, 362, 573, 136, 117)(145, 68, 67, 166, 362, 573, 136, 117)(143, 67, 67, 161, 346, 587, 139, 92)(143, 67, 67, 161, 346, 587, 139, 92)(137, 64, 83, 261, 269, 512, 141, 87)(137, 64, 83, 261, 269, 512, 141, 87)(137, 63, 89, 269, 274, 466, 141, 87)(137, 63, 89, 269, 274, 466, 141, 87)(137, 63, 86, 269, 270, 492, 153, 87)(137, 63, 86, 269, 270, 492, 153, 87)(82, 59, 84, 270, 267, 487, 143, 85)(82, 59, 84, 270, 267, 487, 143, 85)(67, 63, 88, 301, 267, 414, 135, 79)(67, 63, 88, 301, 267, 414, 135, 79)(58, 58, 75, 354, 369, 450, 151, 90)(58, 58, 75, 354, 369, 450, 151, 90)(54, 55, 64, 368, 448, 509, 154, 100)(54, 55, 64, 368, 448, 509, 154, 100)(79, 60, 66, 381, 466, 449, 152, 88)(79, 60, 66, 381, 466, 449, 152, 88)(81, 64, 69, 374, 444, 454, 155, 90)(81, 64, 69, 374, 444, 454, 155, 90)(79, 56, 61, 343, 423, 444, 164, 92)(79, 56, 61, 343, 423, 444, 164, 92)(78, 62, 69, 300, 482, 398, 178, 79)(78, 62, 69, 300, 482, 398, 178, 79)(80, 64, 71, 335, 440, 296, 202, 68)(80, 64, 71, 335, 440, 296, 202, 68)(51, 57, 70, 347, 491, 219, 198, 63)(51, 57, 70, 347, 491, 219, 198, 63)(53, 67, 103, 430, 548, 200, 193, 62)(53, 67, 103, 430, 548, 200, 193, 62)(55, 81, 127, 493, 565, 170, 184, 59)(55, 81, 127, 493, 565, 170, 184, 59)(52, 79, 140, 486, 587, 153, 209, 58)(52, 79, 140, 486, 587, 153, 209, 58)(68, 95, 167, 543, 757, 223, 373, 104)(68, 95, 167, 543, 757, 223, 373, 104)(88, 109, 178, 563, 813, 282, 485, 165)(88, 109, 178, 563, 813, 282, 485, 165)(98, 113, 176, 509, 787, 309, 526, 183)(98, 113, 176, 509, 787, 309, 526, 183)(129, 127, 171, 486, 795, 468, 695, 272)(129, 127, 171, 486, 795, 468, 695, 272)(197, 163, 182, 523, 785, 744, 848, 433)(197, 163, 182, 523, 785, 744, 848, 433)(244, 193, 192, 443, 606, 944, 976, 517)(244, 193, 192, 443, 606, 944, 976, 517)(253, 206, 211, 477, 517, 1031, 1088, 541)(253, 206, 211, 477, 517, 1031, 1088, 541)(256, 201, 223, 548, 528, 1116, 1146, 561)(256, 201, 223, 548, 528, 1116, 1146, 561)(280, 212, 238, 542, 627, 1185, 1229, 608)(280, 212, 238, 542, 627, 1185, 1229, 608)(273, 208, 244, 727, 725, 1086, 1274, 601)(273, 208, 244, 727, 725, 1086, 1274, 601)(244, 180, 229, 756, 816, 913, 1146, 540)(244, 180, 229, 756, 816, 913, 1146, 540)(273, 165, 213, 752, 857, 801, 1017, 512)(273, 165, 213, 752, 857, 801, 1017, 512)(368, 182, 193, 703, 841, 684, 957, 555)(368, 182, 193, 703, 841, 684, 957, 555)(357, 164, 165, 686, 765, 457, 740, 517)(357, 164, 165, 686, 765, 457, 740, 517)(339, 137, 127, 408, 598, 331, 510, 457)(339, 137, 127, 408, 598, 331, 510, 457)(330, 144, 136, 453, 612, 322, 492, 446)(330, 144, 136, 453, 612, 322, 492, 446)(301, 137, 123, 404, 553, 309, 445, 440)(301, 137, 123, 404, 553, 309, 445, 440)(168, 111, 112, 394, 555, 263, 394, 371)(168, 111, 112, 394, 555, 263, 394, 371)(138, 119, 140, 499, 559, 226, 360, 291)(138, 119, 140, 499, 559, 226, 360, 291)(116, 115, 144, 522, 566, 193, 223, 197)(116, 115, 144, 522, 566, 193, 223, 197)(118, 103, 139, 528, 406, 191, 306, 193)(118, 103, 139, 528, 406, 191, 306, 193)(102, 109, 154, 547, 407, 189, 310, 174)(102, 109, 154, 547, 407, 189, 310, 174)(158, 156, 214, 781, 568, 258, 435, 286)(158, 156, 214, 781, 568, 258, 435, 286)(295, 183, 213, 787, 586, 259, 527, 505)(295, 183, 213, 787, 586, 259, 527, 505)(381, 205, 230, 783, 648, 280, 600, 599)(381, 205, 230, 783, 648, 280, 600, 599)(401, 234, 245, 787, 755, 276, 575, 635)(401, 234, 245, 787, 755, 276, 575, 635)(474, 292, 284, 835, 999, 331, 635, 804)(474, 292, 284, 835, 999, 331, 635, 804)(544, 322, 271, 768, 1089, 310, 645, 852)(544, 322, 271, 768, 1089, 310, 645, 852)(492, 310, 267, 790, 1108, 313, 621, 833)(492, 310, 267, 790, 1108, 313, 621, 833)(446, 307, 264, 804, 1134, 310, 620, 827)(446, 307, 264, 804, 1134, 310, 620, 827)(432, 287, 243, 791, 1128, 292, 614, 825)(432, 287, 243, 791, 1128, 292, 614, 825)(371, 232, 186, 757, 1010, 225, 604, 723)(371, 232, 186, 757, 1010, 225, 604, 723)(236, 159, 143, 660, 882, 179, 550, 654)(236, 159, 143, 660, 882, 179, 550, 654)(213, 141, 132, 589, 886, 159, 535, 559)(213, 141, 132, 589, 886, 159, 535, 559)(175, 114, 109, 566, 825, 247, 458, 475)(175, 114, 109, 566, 825, 247, 458, 475)(158, 102, 96, 509, 756, 255, 459, 431)(158, 102, 96, 509, 756, 255, 459, 431)(109, 80, 86, 443, 592, 253, 392, 319)(109, 80, 86, 443, 592, 253, 392, 319)(78, 66, 85, 373, 504, 255, 319, 217)(78, 66, 85, 373, 504, 255, 319, 217)(70, 63, 73, 406, 445, 255, 227, 151)(70, 63, 73, 406, 445, 255, 227, 151)(67, 57, 57, 385, 367, 140, 210, 122)(67, 57, 57, 385, 367, 140, 210, 122)(67, 68, 80, 372, 331, 106, 156, 86)(67, 68, 80, 372, 331, 106, 156, 86)(61, 78, 106, 399, 424, 116, 126, 76)(61, 78, 106, 399, 424, 116, 126, 76)(52, 76, 108, 406, 457, 109, 115, 66)(52, 76, 108, 406, 457, 109, 115, 66)(52, 83, 118, 322, 426, 103, 98, 52)(52, 83, 118, 322, 426, 103, 98, 52)(59, 104, 125, 319, 488, 98, 110, 46)(59, 104, 125, 319, 488, 98, 110, 46)(52, 102, 124, 361, 498, 99, 169, 47)(52, 102, 124, 361, 498, 99, 169, 47)(46, 95, 117, 364, 456, 79, 160, 42)(46, 95, 117, 364, 456, 79, 160, 42)(50, 100, 130, 346, 479, 87, 176, 43)(50, 100, 130, 346, 479, 87, 176, 43)(59, 101, 151, 326, 484, 130, 223, 64)(59, 101, 151, 326, 484, 130, 223, 64)(59, 86, 147, 380, 420, 149, 239, 78)(59, 86, 147, 380, 420, 149, 239, 78)(63, 89, 151, 358, 387, 156, 223, 81)(63, 89, 151, 358, 387, 156, 223, 81)(65, 92, 143, 329, 352, 158, 226, 83)(65, 92, 143, 329, 352, 158, 226, 83)(63, 88, 136, 366, 255, 152, 221, 83)(63, 88, 136, 366, 255, 152, 221, 83)(58, 85, 116, 398, 229, 120, 182, 67)(58, 85, 116, 398, 229, 120, 182, 67)(51, 80, 116, 341, 257, 97, 222, 53)(51, 80, 116, 341, 257, 97, 222, 53)(50, 70, 104, 373, 307, 100, 251, 56)(50, 70, 104, 373, 307, 100, 251, 56)(46, 64, 108, 402, 307, 116, 345, 62)(46, 64, 108, 402, 307, 116, 345, 62)(53, 65, 104, 388, 366, 163, 484, 77)(53, 65, 104, 388, 366, 163, 484, 77)(50, 63, 110, 379, 383, 192, 499, 81)(50, 63, 110, 379, 383, 192, 499, 81)(61, 78, 154, 425, 373, 290, 583, 105)(61, 78, 154, 425, 373, 290, 583, 105)(72, 84, 156, 391, 338, 367, 655, 132)(72, 84, 156, 391, 338, 367, 655, 132)(78, 93, 159, 382, 410, 395, 719, 140)(78, 93, 159, 382, 410, 395, 719, 140)(80, 107, 205, 472, 357, 453, 689, 151)(80, 107, 205, 472, 357, 453, 689, 151)(86, 113, 219, 503, 323, 504, 771, 174)(86, 113, 219, 503, 323, 504, 771, 174)(85, 104, 200, 490, 302, 482, 754, 172)(85, 104, 200, 490, 302, 482, 754, 172)(82, 108, 227, 484, 307, 479, 758, 166)(82, 108, 227, 484, 307, 479, 758, 166)(93, 108, 266, 503, 188, 559, 747, 221)(93, 108, 266, 503, 188, 559, 747, 221)(120, 98, 269, 435, 164, 512, 711, 301)(120, 98, 269, 435, 164, 512, 711, 301)(153, 103, 267, 413, 162, 471, 632, 383)(153, 103, 267, 413, 162, 471, 632, 383)(196, 117, 285, 382, 161, 518, 686, 481)(196, 117, 285, 382, 161, 518, 686, 481)(215, 115, 268, 401, 135, 530, 641, 538)(215, 115, 268, 401, 135, 530, 641, 538)(212, 119, 303, 425, 122, 454, 629, 539)(212, 119, 303, 425, 122, 454, 629, 539)(204, 119, 278, 399, 138, 529, 707, 533)(204, 119, 278, 399, 138, 529, 707, 533)(186, 110, 276, 367, 136, 531, 745, 496)(186, 110, 276, 367, 136, 531, 745, 496)(139, 94, 271, 387, 133, 472, 680, 410)(139, 94, 271, 387, 133, 472, 680, 410)(111, 86, 264, 350, 120, 409, 677, 344)(111, 86, 264, 350, 120, 409, 677, 344)(102, 71, 173, 249, 123, 365, 596, 308)(102, 71, 173, 249, 123, 365, 596, 308)(83, 60, 163, 254, 112, 219, 478, 238)(83, 60, 163, 254, 112, 219, 478, 238)(114, 99, 144, 272, 278, 173, 420, 220)(114, 99, 144, 272, 278, 173, 420, 220)(123, 115, 120, 285, 345, 133, 356, 242)(123, 115, 120, 285, 345, 133, 356, 242)(119, 117, 121, 272, 352, 105, 288, 228)(119, 117, 121, 272, 352, 105, 288, 228)(119, 116, 112, 260, 377, 99, 293, 230)(119, 116, 112, 260, 377, 99, 293, 230)(219, 162, 131, 386, 423, 141, 409, 266)(219, 162, 131, 386, 423, 141, 409, 266)(271, 211, 192, 495, 505, 185, 390, 274)(271, 211, 192, 495, 505, 185, 390, 274)(458, 282, 221, 662, 656, 211, 444, 315)(458, 282, 221, 662, 656, 211, 444, 315)(485, 293, 227, 685, 742, 219, 449, 360)(485, 293, 227, 685, 742, 219, 449, 360)(498, 308, 250, 739, 797, 228, 586, 448)(498, 308, 250, 739, 797, 228, 586, 448)(476, 288, 242, 709, 819, 204, 545, 438)(476, 288, 242, 709, 819, 204, 545, 438)(447, 246, 197, 718, 773, 165, 562, 429)(447, 246, 197, 718, 773, 165, 562, 429)(257, 162, 165, 590, 652, 147, 521, 388)(257, 162, 165, 590, 652, 147, 521, 388)(200, 141, 167, 669, 600, 144, 560, 420)(200, 141, 167, 669, 600, 144, 560, 420)(171, 125, 162, 755, 657, 163, 467, 356)(171, 125, 162, 755, 657, 163, 467, 356)(142, 124, 164, 783, 647, 177, 470, 393)(142, 124, 164, 783, 647, 177, 470, 393)(111, 117, 171, 740, 660, 176, 555, 421)(111, 117, 171, 740, 660, 176, 555, 421)(85, 101, 164, 741, 643, 160, 572, 425)(85, 101, 164, 741, 643, 160, 572, 425)(84, 100, 159, 695, 622, 159, 540, 351)(84, 100, 159, 695, 622, 159, 540, 351)(75, 85, 136, 551, 526, 131, 493, 321)(75, 85, 136, 551, 526, 131, 493, 321)(61, 84, 134, 565, 510, 119, 525, 297)(61, 84, 134, 565, 510, 119, 525, 297)(61, 82, 125, 555, 482, 130, 432, 244)(61, 82, 125, 555, 482, 130, 432, 244)(62, 84, 129, 539, 542, 131, 400, 212)(62, 84, 129, 539, 542, 131, 400, 212)(67, 88, 132, 609, 661, 135, 399, 216)(67, 88, 132, 609, 661, 135, 399, 216)(65, 84, 137, 672, 693, 134, 423, 258)(65, 84, 137, 672, 693, 134, 423, 258)(62, 79, 139, 678, 726, 131, 333, 225)(62, 79, 139, 678, 726, 131, 333, 225)(59, 74, 137, 657, 718, 114, 278, 214)(59, 74, 137, 657, 718, 114, 278, 214)(52, 69, 128, 651, 669, 104, 255, 214)(52, 69, 128, 651, 669, 104, 255, 214)(49, 63, 116, 533, 547, 88, 215, 198)(49, 63, 116, 533, 547, 88, 215, 198)(44, 60, 102, 454, 448, 84, 152, 123)(44, 60, 102, 454, 448, 84, 152, 123)(44, 60, 102, 454, 448, 84, 152, 123)(42, 73, 129, 417, 346, 78, 162, 82)(42, 73, 129, 417, 346, 78, 162, 82)(111, 117, 171, 740, 660, 176, 555, 421)(111, 117, 171, 740, 660, 176, 555, 421)(85, 101, 164, 741, 643, 160, 572, 425)(85, 101, 164, 741, 643, 160, 572, 425)(84, 100, 159, 695, 622, 159, 540, 351)(84, 100, 159, 695, 622, 159, 540, 351)(84, 100, 159, 695, 622, 159, 540, 351)(45, 75, 134, 441, 285, 174, 266, 79)(45, 75, 134, 441, 285, 174, 266, 79)(52, 81, 132, 429, 263, 196, 283, 84)(52, 81, 132, 429, 263, 196, 283, 84)(50, 83, 138, 439, 222, 198, 287, 79)(50, 83, 138, 439, 222, 198, 287, 79)(52, 80, 143, 442, 234, 200, 287, 79)(52, 80, 143, 442, 234, 200, 287, 79)(55, 74, 127, 401, 309, 248, 306, 86)(55, 74, 127, 401, 309, 248, 306, 86)(59, 86, 157, 375, 322, 208, 271, 81)(59, 86, 157, 375, 322, 208, 271, 81)(56, 86, 159, 391, 324, 191, 265, 77)(56, 86, 159, 391, 324, 191, 265, 77)(55, 80, 154, 369, 313, 189, 270, 77)(55, 80, 154, 369, 313, 189, 270, 77)(57, 83, 146, 377, 300, 189, 272, 79)(57, 83, 146, 377, 300, 189, 272, 79)(56, 82, 135, 387, 228, 151, 261, 79)(56, 82, 135, 387, 228, 151, 261, 79)(131, 148, 117, 400, 257, 429, 571, 218)(131, 148, 117, 400, 257, 429, 571, 218)(131, 148, 117, 400, 257, 429, 571, 218)(159, 169, 123, 374, 316, 662, 664, 277)(159, 169, 123, 374, 316, 662, 664, 277)(208, 215, 180, 515, 484, 842, 918, 364)(208, 215, 180, 515, 484, 842, 918, 364)(215, 226, 270, 535, 561, 917, 1001, 380)(215, 226, 270, 535, 561, 917, 1001, 380)(221, 229, 290, 483, 558, 952, 1063, 386)(221, 229, 290, 483, 558, 952, 1063, 386)(185, 187, 281, 454, 536, 915, 979, 337)(185, 187, 281, 454, 536, 915, 979, 337)(165, 171, 294, 451, 498, 796, 938, 297)(165, 171, 294, 451, 498, 796, 938, 297)(100, 127, 278, 341, 347, 666, 769, 206)(100, 127, 278, 341, 347, 666, 769, 206)(94, 124, 237, 380, 209, 622, 677, 216)(94, 124, 237, 380, 209, 622, 677, 216)(93, 123, 221, 390, 189, 589, 581, 215)(93, 123, 221, 390, 189, 589, 581, 215)(120, 131, 222, 386, 181, 510, 493, 220)(120, 131, 222, 386, 181, 510, 493, 220)(135, 137, 203, 382, 177, 547, 531, 233)(135, 137, 203, 382, 177, 547, 531, 233)(142, 127, 182, 330, 148, 482, 457, 243)(142, 127, 182, 330, 148, 482, 457, 243)(143, 110, 137, 210, 113, 423, 451, 250)(143, 110, 137, 210, 113, 423, 451, 250)(137, 104, 125, 208, 105, 405, 524, 246)(137, 104, 125, 208, 105, 405, 524, 246)(140, 106, 149, 325, 111, 406, 538, 278)(140, 106, 149, 325, 111, 406, 538, 278)(148, 89, 151, 331, 110, 281, 488, 278)(148, 89, 151, 331, 110, 281, 488, 278)(146, 82, 153, 335, 112, 279, 492, 259)(146, 82, 153, 335, 112, 279, 492, 259)(141, 84, 148, 352, 113, 259, 486, 223)(141, 84, 148, 352, 113, 259, 486, 223)(141, 84, 155, 352, 104, 235, 390, 240)(141, 84, 155, 352, 104, 235, 390, 240)(115, 67, 127, 247, 90, 250, 352, 188)(115, 67, 127, 247, 90, 250, 352, 188)(81, 66, 116, 236, 84, 253, 320, 158)(81, 66, 116, 236, 84, 253, 320, 158)(64, 59, 118, 233, 76, 238, 282, 153)(64, 59, 118, 233, 76, 238, 282, 153)(59, 46, 103, 173, 69, 226, 251, 151)(59, 46, 103, 173, 69, 226, 251, 151)(47, 43, 98, 174, 96, 213, 242, 107)(47, 43, 98, 174, 96, 213, 242, 107)(41, 43, 106, 186, 108, 166, 229, 86)(41, 43, 106, 186, 108, 166, 229, 86)(42, 45, 116, 188, 110, 146, 204, 126)(42, 45, 116, 188, 110, 146, 204, 126)(40, 45, 108, 174, 110, 130, 142, 155)(40, 45, 108, 174, 110, 130, 142, 155)(41, 47, 107, 178, 113, 97, 140, 150)(41, 47, 107, 178, 113, 97, 140, 150)(43, 44, 106, 141, 92, 96, 130, 151)(43, 44, 106, 141, 92, 96, 130, 151)(47, 44, 103, 148, 101, 94, 196, 171)(47, 44, 103, 148, 101, 94, 196, 171)(46, 47, 116, 183, 107, 85, 206, 148)(46, 47, 116, 183, 107, 85, 206, 148)(45, 46, 112, 190, 125, 76, 204, 148)(45, 46, 112, 190, 125, 76, 204, 148)(44, 52, 113, 258, 230, 71, 191, 150)(44, 52, 113, 258, 230, 71, 191, 150)(120, 98, 142, 421, 389, 131, 208, 216)(120, 98, 142, 421, 389, 131, 208, 216)(148, 158, 191, 619, 570, 209, 387, 254)(148, 158, 191, 619, 570, 209, 387, 254)(159, 169, 194, 637, 595, 228, 407, 266)(159, 169, 194, 637, 595, 228, 407, 266)(163, 172, 197, 663, 638, 229, 454, 275)(163, 172, 197, 663, 638, 229, 454, 275)(181, 183, 208, 708, 724, 255, 541, 402)(181, 183, 208, 708, 724, 255, 541, 402)(167, 179, 200, 730, 708, 245, 562, 394)(167, 179, 200, 730, 708, 245, 562, 394)(162, 132, 155, 634, 653, 194, 505, 406)(162, 132, 155, 634, 653, 194, 505, 406)(156, 129, 157, 668, 676, 192, 620, 423)(156, 129, 157, 668, 676, 192, 620, 423)(152, 132, 167, 708, 699, 204, 605, 416)(152, 132, 167, 708, 699, 204, 605, 416)(132, 114, 159, 714, 647, 183, 532, 306)(132, 114, 159, 714, 647, 183, 532, 306)(99, 88, 137, 642, 639, 157, 514, 285)(99, 88, 137, 642, 639, 157, 514, 285)(63, 87, 134, 621, 605, 145, 464, 251)(63, 87, 134, 621, 605, 145, 464, 251)(63, 87, 134, 621, 605, 145, 464, 251)(51, 66, 113, 561, 566, 119, 273, 225)(51, 66, 113, 561, 566, 119, 273, 225)(49, 56, 100, 490, 520, 108, 231, 210)(49, 56, 100, 490, 520, 108, 231, 210)(44, 58, 89, 382, 464, 88, 230, 199)(44, 58, 89, 382, 464, 88, 230, 199)(48, 73, 113, 383, 499, 106, 204, 187)(48, 73, 113, 383, 499, 106, 204, 187)(44, 73, 115, 434, 531, 107, 154, 145)(44, 73, 115, 434, 531, 107, 154, 145)(43, 75, 116, 577, 612, 109, 173, 128)(43, 75, 116, 577, 612, 109, 173, 128)(46, 71, 109, 569, 591, 101, 234, 179)(46, 71, 109, 569, 591, 101, 234, 179)(45, 68, 108, 562, 575, 98, 243, 180)(45, 68, 108, 562, 575, 98, 243, 180)(45, 68, 108, 562, 575, 98, 243, 180)(36, 52, 83, 531, 513, 81, 242, 180)(36, 52, 83, 531, 513, 81, 242, 180)(36, 49, 89, 494, 490, 82, 244, 179)(36, 49, 89, 494, 490, 82, 244, 179)(39, 45, 84, 334, 376, 70, 215, 167)(39, 45, 84, 334, 376, 70, 215, 167)(34, 46, 96, 335, 392, 70, 137, 95)(34, 46, 96, 335, 392, 70, 137, 95)(35, 46, 108, 373, 413, 79, 101, 73)(35, 46, 108, 373, 413, 79, 101, 73)(36, 50, 113, 413, 393, 80, 90, 68)(36, 50, 113, 413, 393, 80, 90, 68)(35, 53, 120, 341, 300, 82, 75, 53)(35, 53, 120, 341, 300, 82, 75, 53)(32, 59, 126, 347, 379, 97, 76, 44)(32, 59, 126, 347, 379, 97, 76, 44)(33, 62, 129, 438, 395, 98, 69, 39)(33, 62, 129, 438, 395, 98, 69, 39)(33, 64, 125, 420, 376, 95, 71, 36)(33, 64, 125, 420, 376, 95, 71, 36)(38, 68, 136, 410, 438, 118, 82, 38)(38, 68, 136, 410, 438, 118, 82, 38)(47, 75, 137, 443, 453, 155, 259, 61)(47, 75, 137, 443, 453, 155, 259, 61)(52, 75, 132, 424, 400, 154, 285, 72)(52, 75, 132, 424, 400, 154, 285, 72)(56, 75, 126, 341, 425, 154, 297, 81)(56, 75, 126, 341, 425, 154, 297, 81)(63, 84, 126, 392, 429, 176, 372, 95)(63, 84, 126, 392, 429, 176, 372, 95)(68, 89, 120, 376, 349, 212, 437, 114)(68, 89, 120, 376, 349, 212, 437, 114)(88, 100, 113, 327, 336, 338, 520, 156)(88, 100, 113, 327, 336, 338, 520, 156)(87, 102, 110, 318, 324, 390, 578, 156)(87, 102, 110, 318, 324, 390, 578, 156)(89, 100, 106, 334, 292, 498, 652, 171)(89, 100, 106, 334, 292, 498, 652, 171)(92, 101, 135, 255, 341, 583, 701, 176)(92, 101, 135, 255, 341, 583, 701, 176)(106, 106, 152, 226, 366, 687, 831, 200)(106, 106, 152, 226, 366, 687, 831, 200)(91, 90, 152, 248, 356, 689, 790, 181)(91, 90, 152, 248, 356, 689, 790, 181)(90, 84, 164, 251, 348, 678, 763, 182)(90, 84, 164, 251, 348, 678, 763, 182)(112, 116, 211, 229, 298, 658, 740, 204)(112, 116, 211, 229, 298, 658, 740, 204)(110, 112, 199, 259, 217, 596, 662, 206)(110, 112, 199, 259, 217, 596, 662, 206)(99, 101, 188, 254, 161, 543, 543, 194)(99, 101, 188, 254, 161, 543, 543, 194)(101, 104, 188, 238, 156, 506, 502, 203)(101, 104, 188, 238, 156, 506, 502, 203)(131, 116, 204, 365, 163, 489, 543, 232)(131, 116, 204, 365, 163, 489, 543, 232)(120, 86, 161, 363, 162, 433, 518, 215)(120, 86, 161, 363, 162, 433, 518, 215)(122, 86, 161, 339, 143, 419, 541, 230)(122, 86, 161, 339, 143, 419, 541, 230)(122, 90, 187, 364, 144, 305, 469, 218)(122, 90, 187, 364, 144, 305, 469, 218)(146, 93, 185, 364, 164, 426, 477, 215)(146, 93, 185, 364, 164, 426, 477, 215)(129, 85, 169, 251, 150, 433, 416, 205)(129, 85, 169, 251, 150, 433, 416, 205)(125, 85, 166, 239, 134, 438, 382, 191)(125, 85, 166, 239, 134, 438, 382, 191)(121, 80, 162, 268, 142, 456, 363, 176)(121, 80, 162, 268, 142, 456, 363, 176)(116, 76, 120, 229, 137, 459, 340, 191)(116, 76, 120, 229, 137, 459, 340, 191)(78, 66, 127, 235, 110, 344, 294, 190)(78, 66, 127, 235, 110, 344, 294, 190)(67, 66, 117, 257, 108, 340, 272, 218)(67, 66, 117, 257, 108, 340, 272, 218)(62, 60, 111, 251, 100, 307, 272, 218)(62, 60, 111, 251, 100, 307, 272, 218)(58, 59, 104, 258, 87, 276, 248, 213)(58, 59, 104, 258, 87, 276, 248, 213)(57, 56, 100, 251, 85, 258, 208, 197)(57, 56, 100, 251, 85, 258, 208, 197)(58, 54, 83, 239, 66, 169, 197, 194)(58, 54, 83, 239, 66, 169, 197, 194)(50, 40, 64, 184, 59, 127, 252, 135)(50, 40, 64, 184, 59, 127, 252, 135)(50, 40, 64, 184, 59, 127, 252, 135)(54, 41, 61, 177, 53, 119, 239, 146)(54, 41, 61, 177, 53, 119, 239, 146)(54, 46, 52, 104, 45, 83, 234, 138)(54, 46, 52, 104, 45, 83, 234, 138)(56, 48, 56, 96, 37, 64, 233, 137)(56, 48, 56, 96, 37, 64, 233, 137)(52, 48, 49, 89, 33, 53, 220, 111)(52, 48, 49, 89, 33, 53, 220, 111)(71, 55, 49, 89, 58, 50, 144, 118)(71, 55, 49, 89, 58, 50, 144, 118)(113, 85, 55, 81, 107, 46, 241, 107)(113, 85, 55, 81, 107, 46, 241, 107)(168, 139, 117, 287, 388, 127, 356, 182)(168, 139, 117, 287, 388, 127, 356, 182)(337, 286, 219, 564, 720, 245, 437, 250)(337, 286, 219, 564, 720, 245, 437, 250)(372, 359, 278, 672, 768, 321, 565, 356)(372, 359, 278, 672, 768, 321, 565, 356)(396, 380, 298, 784, 855, 361, 619, 556)(396, 380, 298, 784, 855, 361, 619, 556)(407, 382, 309, 932, 919, 369, 629, 594)(407, 382, 309, 932, 919, 369, 629, 594)(412, 374, 306, 988, 897, 357, 619, 594)(412, 374, 306, 988, 897, 357, 619, 594)(311, 289, 265, 968, 713, 297, 597, 610)(311, 289, 265, 968, 713, 297, 597, 610)(274, 205, 223, 949, 719, 237, 577, 588)(274, 205, 223, 949, 719, 237, 577, 588)(235, 163, 195, 882, 621, 174, 515, 416)(235, 163, 195, 882, 621, 174, 515, 416)(200, 146, 176, 782, 577, 156, 490, 368)(200, 146, 176, 782, 577, 156, 490, 368)(147, 127, 162, 697, 538, 159, 495, 357)(147, 127, 162, 697, 538, 159, 495, 357)(100, 101, 129, 628, 505, 147, 464, 296)(100, 101, 129, 628, 505, 147, 464, 296)(82, 67, 91, 563, 442, 106, 347, 240)(82, 67, 91, 563, 442, 106, 347, 240)(75, 67, 97, 549, 480, 108, 356, 224)(75, 67, 97, 549, 480, 108, 356, 224)(67, 72, 102, 518, 461, 132, 403, 232)(67, 72, 102, 518, 461, 132, 403, 232)(62, 63, 84, 490, 487, 121, 347, 218)(62, 63, 84, 490, 487, 121, 347, 218)(54, 62, 83, 403, 469, 120, 350, 200)(54, 62, 83, 403, 469, 120, 350, 200)(53, 60, 81, 395, 464, 119, 366, 182)(53, 60, 81, 395, 464, 119, 366, 182)(47, 58, 75, 401, 446, 113, 350, 169)(47, 58, 75, 401, 446, 113, 350, 169)(40, 48, 65, 334, 389, 212, 242, 128)(40, 48, 65, 334, 389, 212, 242, 128)(33, 43, 60, 339, 285, 210, 191, 83)(33, 43, 60, 339, 285, 210, 191, 83)(34, 40, 73, 356, 287, 219, 166, 68)(34, 40, 73, 356, 287, 219, 166, 68)(36, 46, 92, 402, 295, 233, 130, 57)(36, 46, 92, 402, 295, 233, 130, 57)(40, 55, 113, 378, 272, 250, 152, 57)(40, 55, 113, 378, 272, 250, 152, 57)(53, 75, 175, 411, 315, 365, 285, 79)(53, 75, 175, 411, 315, 365, 285, 79)(66, 83, 182, 385, 376, 478, 321, 101)(66, 83, 182, 385, 376, 478, 321, 101)(81, 92, 185, 337, 363, 510, 447, 124)(81, 92, 185, 337, 363, 510, 447, 124)(115, 113, 185, 283, 360, 587, 638, 197)(115, 113, 185, 283, 360, 587, 638, 197)(140, 122, 179, 311, 367, 663, 722, 256)(140, 122, 179, 311, 367, 663, 722, 256)(178, 146, 140, 289, 349, 729, 827, 320)(178, 146, 140, 289, 349, 729, 827, 320)(199, 169, 163, 312, 361, 842, 975, 365)(199, 169, 163, 312, 361, 842, 975, 365)(203, 175, 175, 505, 483, 871, 984, 375)(203, 175, 175, 505, 483, 871, 984, 375)(195, 173, 177, 524, 507, 847, 906, 353)(195, 173, 177, 524, 507, 847, 906, 353)(179, 166, 176, 508, 540, 802, 851, 316)(179, 166, 176, 508, 540, 802, 851, 316)(179, 166, 176, 508, 540, 802, 851, 316)(144, 137, 181, 500, 531, 689, 755, 274)(144, 137, 181, 500, 531, 689, 755, 274)(115, 108, 195, 480, 475, 469, 559, 232)(115, 108, 195, 480, 475, 469, 559, 232)(101, 91, 190, 288, 351, 425, 468, 209)(101, 91, 190, 288, 351, 425, 468, 209)(106, 96, 234, 274, 306, 453, 473, 212)(106, 96, 234, 274, 306, 453, 473, 212)(121, 96, 238, 279, 204, 431, 484, 224)(121, 96, 238, 279, 204, 431, 484, 224)(120, 102, 232, 340, 255, 432, 447, 229)(120, 102, 232, 340, 255, 432, 447, 229)(150, 103, 207, 371, 267, 428, 423, 253)(150, 103, 207, 371, 267, 428, 423, 253)(163, 104, 198, 369, 266, 378, 432, 289)(163, 104, 198, 369, 266, 378, 432, 289)(175, 87, 136, 363, 243, 261, 347, 298)(175, 87, 136, 363, 243, 261, 347, 298)(177, 91, 171, 421, 242, 254, 302, 321)(177, 91, 171, 421, 242, 254, 302, 321)(184, 110, 165, 374, 181, 209, 267, 306)(184, 110, 165, 374, 181, 209, 267, 306)(158, 192, 165, 345, 157, 171, 261, 265)(158, 192, 165, 345, 157, 171, 261, 265)(144, 200, 166, 375, 120, 156, 200, 220)(144, 200, 166, 375, 120, 156, 200, 220)(119, 201, 170, 427, 113, 161, 202, 197)(119, 201, 170, 427, 113, 161, 202, 197)(100, 200, 122, 374, 113, 157, 191, 134)(100, 200, 122, 374, 113, 157, 191, 134)(78, 189, 115, 365, 109, 96, 153, 127)(78, 189, 115, 365, 109, 96, 153, 127)(124, 204, 174, 487, 142, 94, 150, 139)(124, 204, 174, 487, 142, 94, 150, 139)(129, 247, 170, 465, 170, 108, 163, 177)(129, 247, 170, 465, 170, 108, 163, 177)(126, 249, 163, 398, 267, 97, 129, 168)(126, 249, 163, 398, 267, 97, 129, 168)(126, 255, 164, 385, 273, 87, 121, 167)(126, 255, 164, 385, 273, 87, 121, 167)(127, 256, 166, 383, 270, 85, 122, 149)(127, 256, 166, 383, 270, 85, 122, 149)(80, 189, 97, 243, 256, 80, 100, 137)(80, 189, 97, 243, 256, 80, 100, 137)(78, 175, 91, 216, 247, 60, 84, 128)(78, 175, 91, 216, 247, 60, 84, 128)(69, 178, 91, 244, 142, 55, 80, 125)(69, 178, 91, 244, 142, 55, 80, 125)(69, 183, 89, 247, 225, 50, 75, 124)(69, 183, 89, 247, 225, 50, 75, 124)(64, 182, 88, 256, 232, 48, 75, 124)(64, 182, 88, 256, 232, 48, 75, 124)(64, 182, 88, 256, 232, 48, 75, 124)(70, 236, 81, 213, 229, 48, 75, 123)(70, 236, 81, 213, 229, 48, 75, 123)(110, 271, 109, 206, 228, 40, 61, 129)(110, 271, 109, 206, 228, 40, 61, 129)(113, 277, 105, 164, 227, 37, 67, 132)(113, 277, 105, 164, 227, 37, 67, 132)(113, 276, 104, 137, 151, 36, 67, 132)(113, 276, 104, 137, 151, 36, 67, 132)(113, 279, 99, 103, 135, 35, 65, 134)(113, 279, 99, 103, 135, 35, 65, 134)(107, 242, 98, 99, 136, 35, 67, 145)(107, 242, 98, 99, 136, 35, 67, 145)(69, 206, 65, 119, 306, 39, 56, 99)(69, 206, 65, 119, 306, 39, 56, 99)(72, 195, 74, 120, 321, 40, 45, 91)(72, 195, 74, 120, 321, 40, 45, 91)(96, 202, 77, 119, 317, 39, 42, 94)(96, 202, 77, 119, 317, 39, 42, 94)(255, 241, 93, 207, 339, 79, 276, 194)(255, 241, 93, 207, 339, 79, 276, 194)(409, 306, 136, 370, 450, 125, 434, 437)(409, 306, 136, 370, 450, 125, 434, 437)(576, 437, 257, 649, 680, 232, 492, 516)(576, 437, 257, 649, 680, 232, 492, 516)(626, 453, 267, 735, 758, 254, 627, 607)(626, 453, 267, 735, 758, 254, 627, 607)(639, 450, 266, 746, 788, 257, 645, 627)(639, 450, 266, 746, 788, 257, 645, 627)(596, 436, 284, 891, 945, 280, 673, 663)(596, 436, 284, 891, 945, 280, 673, 663)(509, 396, 296, 866, 1031, 312, 652, 634)(509, 396, 296, 866, 1031, 312, 652, 634)(314, 204, 202, 718, 895, 249, 684, 633)(314, 204, 202, 718, 895, 249, 684, 633)(200, 160, 187, 695, 845, 288, 582, 563)(200, 160, 187, 695, 845, 288, 582, 563)(152, 154, 199, 723, 913, 297, 570, 551)(152, 154, 199, 723, 913, 297, 570, 551)(145, 140, 175, 537, 839, 276, 507, 485)(145, 140, 175, 537, 839, 276, 507, 485)(145, 140, 175, 537, 839, 276, 507, 485)(123, 108, 114, 515, 692, 225, 425, 380)(123, 108, 114, 515, 692, 225, 425, 380)(101, 128, 112, 539, 689, 221, 301, 278)(101, 128, 112, 539, 689, 221, 301, 278)(85, 141, 113, 561, 717, 138, 276, 261)(85, 141, 113, 561, 717, 138, 276, 261)(67, 130, 85, 543, 615, 112, 269, 247)(67, 130, 85, 543, 615, 112, 269, 247)(55, 124, 69, 534, 514, 94, 183, 233)(55, 124, 69, 534, 514, 94, 183, 233)(56, 134, 80, 512, 490, 75, 159, 166)(56, 134, 80, 512, 490, 75, 159, 166)(56, 134, 80, 512, 490, 75, 159, 166)(61, 146, 91, 527, 480, 79, 140, 137)(61, 146, 91, 527, 480, 79, 140, 137)(65, 162, 113, 427, 437, 85, 114, 104)(65, 162, 113, 427, 437, 85, 114, 104)(69, 173, 131, 397, 466, 84, 89, 80)(69, 173, 131, 397, 466, 84, 89, 80)(77, 196, 131, 386, 437, 85, 67, 69)(77, 196, 131, 386, 437, 85, 67, 69)(75, 192, 130, 396, 426, 84, 55, 55)(75, 192, 130, 396, 426, 84, 55, 55)(66, 166, 136, 268, 350, 72, 48, 51)(66, 166, 136, 268, 350, 72, 48, 51)(61, 167, 133, 238, 295, 56, 36, 37)(61, 167, 133, 238, 295, 56, 36, 37)(58, 177, 129, 286, 258, 58, 40, 36)(58, 177, 129, 286, 258, 58, 40, 36)(44, 151, 135, 281, 278, 59, 76, 33)(44, 151, 135, 281, 278, 59, 76, 33)(47, 159, 142, 262, 368, 62, 107, 39)(47, 159, 142, 262, 368, 62, 107, 39)(50, 162, 132, 301, 472, 73, 114, 42)(50, 162, 132, 301, 472, 73, 114, 42)(47, 130, 114, 328, 478, 89, 147, 52)(47, 130, 114, 328, 478, 89, 147, 52)(59, 110, 112, 302, 522, 117, 237, 66)(59, 110, 112, 302, 522, 117, 237, 66)(119, 150, 148, 393, 616, 322, 510, 196)(119, 150, 148, 393, 616, 322, 510, 196)(138, 151, 158, 427, 696, 457, 640, 231)(138, 151, 158, 427, 696, 457, 640, 231)(148, 159, 179, 397, 659, 556, 921, 270)(148, 159, 179, 397, 659, 556, 921, 270)(163, 168, 187, 403, 674, 617, 1055, 299)(163, 168, 187, 403, 674, 617, 1055, 299)(171, 181, 228, 445, 628, 672, 1158, 322)(171, 181, 228, 445, 628, 672, 1158, 322)(140, 146, 233, 387, 516, 670, 1139, 276)(140, 146, 233, 387, 516, 670, 1139, 276)(123, 142, 268, 402, 328, 619, 1107, 256)(123, 142, 268, 402, 328, 619, 1107, 256)(123, 142, 268, 402, 328, 619, 1107, 256)(113, 131, 260, 414, 267, 551, 929, 225)(113, 131, 260, 414, 267, 551, 929, 225)(103, 127, 282, 392, 220, 504, 866, 197)(103, 127, 282, 392, 220, 504, 866, 197)(120, 115, 256, 340, 171, 443, 732, 203)(120, 115, 256, 340, 171, 443, 732, 203)(134, 114, 234, 327, 161, 366, 640, 216)(134, 114, 234, 327, 161, 366, 640, 216)(139, 111, 197, 284, 144, 318, 606, 220)(139, 111, 197, 284, 144, 318, 606, 220)(145, 105, 186, 281, 139, 307, 594, 222)(145, 105, 186, 281, 139, 307, 594, 222)(140, 93, 154, 283, 164, 268, 447, 211)(140, 93, 154, 283, 164, 268, 447, 211)(113, 77, 149, 270, 167, 257, 432, 183)(113, 77, 149, 270, 167, 257, 432, 183)(91, 67, 141, 246, 160, 210, 395, 147)(91, 67, 141, 246, 160, 210, 395, 147)(78, 55, 108, 207, 153, 197, 342, 126)(78, 55, 108, 207, 153, 197, 342, 126)(64, 58, 110, 170, 167, 348, 236, 133)(64, 58, 110, 170, 167, 348, 236, 133)(63, 58, 94, 172, 283, 486, 288, 189)(63, 58, 94, 172, 283, 486, 288, 189)(61, 55, 73, 161, 338, 629, 244, 183)(61, 55, 73, 161, 338, 629, 244, 183)(69, 60, 72, 233, 474, 645, 270, 302)(69, 60, 72, 233, 474, 645, 270, 302)(70, 66, 84, 340, 520, 763, 328, 316)(70, 66, 84, 340, 520, 763, 328, 316)(77, 78, 101, 446, 542, 720, 353, 356)(77, 78, 101, 446, 542, 720, 353, 356)(74, 78, 101, 513, 512, 685, 316, 347)(74, 78, 101, 513, 512, 685, 316, 347)(71, 78, 100, 601, 499, 562, 349, 369)(71, 78, 100, 601, 499, 562, 349, 369)(73, 77, 100, 585, 404, 546, 400, 322)(73, 77, 100, 585, 404, 546, 400, 322)(87, 80, 87, 532, 375, 372, 372, 377)(87, 80, 87, 532, 375, 372, 372, 377)(95, 106, 66, 447, 356, 329, 364, 351)(95, 106, 66, 447, 356, 329, 364, 351)(99, 113, 60, 364, 316, 204, 357, 341)(99, 113, 60, 364, 316, 204, 357, 341)(99, 117, 53, 176, 276, 153, 311, 321)(99, 117, 53, 176, 276, 153, 311, 321)(98, 114, 47, 211, 304, 269, 203, 294)(98, 114, 47, 211, 304, 269, 203, 294)(87, 111, 56, 337, 379, 305, 171, 206)(87, 111, 56, 337, 379, 305, 171, 206)(71, 83, 51, 363, 388, 312, 127, 170)(71, 83, 51, 363, 388, 312, 127, 170)(61, 71, 49, 376, 436, 440, 130, 154)(61, 71, 49, 376, 436, 440, 130, 154)(61, 69, 50, 384, 467, 445, 126, 160)(61, 69, 50, 384, 467, 445, 126, 160)(54, 73, 52, 359, 450, 454, 131, 134)(54, 73, 52, 359, 450, 454, 131, 134)(60, 88, 58, 247, 400, 447, 126, 122)(60, 88, 58, 247, 400, 447, 126, 122)(62, 85, 59, 211, 382, 524, 139, 118)(62, 85, 59, 211, 382, 524, 139, 118)(63, 85, 59, 174, 337, 479, 129, 126)(63, 85, 59, 174, 337, 479, 129, 126)(60, 79, 61, 161, 359, 623, 149, 80)(60, 79, 61, 161, 359, 623, 149, 80)(70, 88, 70, 312, 506, 653, 154, 95)(70, 88, 70, 312, 506, 653, 154, 95)(61, 71, 64, 336, 519, 644, 149, 96)(61, 71, 64, 336, 519, 644, 149, 96)(61, 71, 64, 336, 519, 644, 149, 96)(63, 67, 64, 345, 580, 792, 177, 132)(63, 67, 64, 345, 580, 792, 177, 132)(61, 65, 65, 374, 613, 802, 199, 163)(61, 65, 65, 374, 613, 802, 199, 163)(61, 64, 64, 370, 606, 715, 185, 168)(61, 64, 64, 370, 606, 715, 185, 168)(43, 45, 52, 244, 511, 683, 174, 162)(43, 45, 52, 244, 511, 683, 174, 162)(43, 41, 46, 199, 481, 687, 186, 160)(43, 41, 46, 199, 481, 687, 186, 160)(35, 40, 45, 199, 482, 478, 155, 134)(35, 40, 45, 199, 482, 478, 155, 134)(38, 40, 41, 184, 519, 447, 128, 86)(38, 40, 41, 184, 519, 447, 128, 86)(41, 48, 48, 206, 521, 427, 125, 79)(41, 48, 48, 206, 521, 427, 125, 79)(41, 47, 49, 213, 508, 381, 126, 65)(41, 47, 49, 213, 508, 381, 126, 65)(42, 55, 53, 217, 499, 384, 121, 57)(42, 55, 53, 217, 499, 384, 121, 57)(47, 88, 55, 201, 428, 316, 112, 49)(47, 88, 55, 201, 428, 316, 112, 49)(51, 97, 60, 159, 390, 377, 138, 51)(51, 97, 60, 159, 390, 377, 138, 51)(49, 95, 54, 156, 399, 387, 142, 47)(49, 95, 54, 156, 399, 387, 142, 47)(52, 101, 73, 336, 462, 379, 137, 50)(52, 101, 73, 336, 462, 379, 137, 50)(52, 100, 81, 380, 477, 504, 152, 56)(52, 100, 81, 380, 477, 504, 152, 56)(50, 80, 80, 378, 475, 510, 151, 58)(50, 80, 80, 378, 475, 510, 151, 58)(43, 68, 75, 385, 421, 431, 121, 49)(43, 68, 75, 385, 421, 431, 121, 49)(47, 70, 81, 443, 448, 447, 121, 62)(47, 70, 81, 443, 448, 447, 121, 62)(61, 100, 112, 495, 457, 462, 126, 73)(61, 100, 112, 495, 457, 462, 126, 73)(61, 101, 116, 518, 469, 321, 92, 70)(61, 101, 116, 518, 469, 321, 92, 70)(57, 95, 115, 520, 464, 320, 90, 69)(57, 95, 115, 520, 464, 320, 90, 69)(61, 97, 127, 609, 521, 317, 94, 72)(61, 97, 127, 609, 521, 317, 94, 72)(65, 108, 154, 651, 521, 280, 97, 64)(65, 108, 154, 651, 521, 280, 97, 64)(55, 77, 127, 539, 456, 406, 106, 64)(55, 77, 127, 539, 456, 406, 106, 64)(67, 77, 119, 489, 437, 418, 209, 203)(67, 77, 119, 489, 437, 418, 209, 203)(136, 80, 120, 492, 436, 427, 227, 224)(136, 80, 120, 492, 436, 427, 227, 224)(152, 90, 113, 373, 371, 440, 313, 243)(152, 90, 113, 373, 371, 440, 313, 243)(167, 77, 63, 175, 273, 453, 427, 345)(167, 77, 63, 175, 273, 453, 427, 345)(177, 78, 56, 149, 210, 379, 435, 382)(177, 78, 56, 149, 210, 379, 435, 382)(178, 83, 52, 129, 265, 346, 409, 346)(178, 83, 52, 129, 265, 346, 409, 346)(142, 78, 78, 253, 384, 341, 413, 341)(142, 78, 78, 253, 384, 341, 413, 341)(138, 89, 121, 567, 657, 343, 352, 332)(138, 89, 121, 567, 657, 343, 352, 332)(120, 102, 158, 783, 810, 343, 222, 238)(120, 102, 158, 783, 810, 343, 222, 238)(106, 108, 166, 798, 818, 271, 200, 170)(106, 108, 166, 798, 818, 271, 200, 170)(99, 103, 168, 804, 802, 288, 170, 135)(99, 103, 168, 804, 802, 288, 170, 135)(102, 264, 160, 774, 754, 267, 144, 111)(102, 264, 160, 774, 754, 267, 144, 111)(86, 284, 132, 584, 527, 229, 141, 97)(86, 284, 132, 584, 527, 229, 141, 97)(79, 283, 83, 222, 228, 163, 102, 51)(79, 283, 83, 222, 228, 163, 102, 51)(80, 292, 79, 163, 196, 139, 96, 45)(80, 292, 79, 163, 196, 139, 96, 45)(80, 325, 72, 132, 250, 95, 96, 48)(80, 325, 72, 132, 250, 95, 96, 48)(108, 356, 80, 128, 273, 85, 81, 51)(108, 356, 80, 128, 273, 85, 81, 51)(112, 355, 86, 119, 316, 77, 87, 45)(112, 355, 86, 119, 316, 77, 87, 45)(115, 362, 94, 117, 322, 81, 71, 46)(115, 362, 94, 117, 322, 81, 71, 46)(113, 362, 92, 216, 342, 78, 69, 43)(113, 362, 92, 216, 342, 78, 69, 43)(114, 340, 95, 225, 314, 60, 62, 36)(114, 340, 95, 225, 314, 60, 62, 36)(70, 214, 92, 256, 287, 59, 59, 30)(70, 214, 92, 256, 287, 59, 59, 30)(71, 241, 102, 276, 235, 56, 45, 35)(71, 241, 102, 276, 235, 56, 45, 35)(63, 234, 106, 300, 239, 53, 57, 31)(63, 234, 106, 300, 239, 53, 57, 31)(62, 231, 109, 247, 216, 52, 55, 34)(62, 231, 109, 247, 216, 52, 55, 34)(61, 241, 156, 347, 350, 83, 70, 35)(61, 241, 156, 347, 350, 83, 70, 35)(70, 229, 163, 332, 369, 98, 91, 37)(70, 229, 163, 332, 369, 98, 91, 37)(66, 202, 156, 328, 366, 98, 96, 36)(66, 202, 156, 328, 366, 98, 96, 36)(65, 193, 160, 399, 465, 115, 92, 43)(65, 193, 160, 399, 465, 115, 92, 43)(64, 178, 157, 460, 499, 137, 107, 43)(64, 178, 157, 460, 499, 137, 107, 43)(69, 153, 127, 467, 441, 143, 167, 61)(69, 153, 127, 467, 441, 143, 167, 61)(63, 147, 116, 463, 488, 164, 292, 73)(63, 147, 116, 463, 488, 164, 292, 73)(60, 92, 110, 458, 499, 174, 304, 77)(60, 92, 110, 458, 499, 174, 304, 77)(64, 91, 97, 384, 431, 188, 381, 84)(64, 91, 97, 384, 431, 188, 381, 84)(81, 108, 105, 319, 419, 250, 476, 109)(81, 108, 105, 319, 419, 250, 476, 109)(81, 113, 105, 259, 434, 282, 609, 141)(81, 113, 105, 259, 434, 282, 609, 141)(82, 103, 110, 297, 373, 307, 661, 171)(82, 103, 110, 297, 373, 307, 661, 171)(80, 102, 113, 336, 394, 340, 723, 179)(80, 102, 113, 336, 394, 340, 723, 179)(97, 101, 111, 375, 456, 356, 708, 202)(97, 101, 111, 375, 456, 356, 708, 202)(91, 85, 126, 376, 486, 338, 675, 195)(91, 85, 126, 376, 486, 338, 675, 195)(96, 80, 132, 379, 441, 368, 671, 183)(96, 80, 132, 379, 441, 368, 671, 183)(121, 81, 138, 381, 436, 402, 652, 173)(121, 81, 138, 381, 436, 402, 652, 173)(130, 80, 142, 363, 423, 380, 588, 197)(130, 80, 142, 363, 423, 380, 588, 197)(130, 81, 146, 349, 323, 386, 576, 191)(130, 81, 146, 349, 323, 386, 576, 191)(139, 89, 171, 381, 238, 449, 619, 226)(139, 89, 171, 381, 238, 449, 619, 226)(137, 83, 170, 354, 227, 407, 492, 239)(137, 83, 170, 354, 227, 407, 492, 239)(114, 81, 166, 317, 213, 350, 389, 227)(114, 81, 166, 317, 213, 350, 389, 227)(105, 79, 171, 308, 169, 347, 378, 200)(105, 79, 171, 308, 169, 347, 378, 200)(88, 74, 171, 284, 143, 310, 357, 180)(88, 74, 171, 284, 143, 310, 357, 180)(67, 62, 139, 217, 104, 157, 200, 126)(67, 62, 139, 217, 104, 157, 200, 126)(52, 57, 124, 207, 73, 134, 155, 69)(52, 57, 124, 207, 73, 134, 155, 69)(47, 54, 113, 206, 69, 104, 118, 55)(47, 54, 113, 206, 69, 104, 118, 55)(41, 49, 96, 181, 71, 78, 85, 49)(41, 49, 96, 181, 71, 78, 85, 49)(32, 46, 87, 164, 131, 80, 71, 38)(32, 46, 87, 164, 131, 80, 71, 38)(30, 40, 65, 167, 242, 64, 57, 61)(30, 40, 65, 167, 242, 64, 57, 61)(49, 49, 77, 322, 398, 87, 114, 91)(49, 49, 77, 322, 398, 87, 114, 91)(69, 69, 89, 386, 537, 98, 119, 121)(69, 69, 89, 386, 537, 98, 119, 121)(90, 96, 117, 520, 651, 140, 265, 152)(90, 96, 117, 520, 651, 140, 265, 152)(101, 109, 129, 567, 658, 146, 274, 161)(101, 109, 129, 567, 658, 146, 274, 161)(179, 138, 153, 646, 817, 180, 387, 345)(179, 138, 153, 646, 817, 180, 387, 345)(187, 155, 171, 638, 811, 186, 401, 356)(187, 155, 171, 638, 811, 186, 401, 356)(195, 151, 176, 742, 792, 193, 495, 400)(195, 151, 176, 742, 792, 193, 495, 400)(190, 138, 173, 735, 750, 177, 496, 460)(190, 138, 173, 735, 750, 177, 496, 460)(194, 129, 167, 716, 788, 179, 570, 493)(194, 129, 167, 716, 788, 179, 570, 493)(182, 105, 154, 694, 606, 165, 627, 543)(182, 105, 154, 694, 606, 165, 627, 543)(178, 89, 138, 685, 655, 167, 649, 559)(178, 89, 138, 685, 655, 167, 649, 559)(171, 112, 171, 612, 737, 200, 624, 568)(171, 112, 171, 612, 737, 200, 624, 568)(189, 119, 180, 650, 790, 221, 620, 569)(189, 119, 180, 650, 790, 221, 620, 569)(236, 147, 209, 760, 913, 257, 602, 551)(236, 147, 209, 760, 913, 257, 602, 551)(222, 155, 226, 851, 969, 276, 550, 437)(222, 155, 226, 851, 969, 276, 550, 437)(235, 178, 257, 918, 976, 311, 526, 423)(235, 178, 257, 918, 976, 311, 526, 423)(236, 168, 242, 954, 927, 301, 482, 371)(236, 168, 242, 954, 927, 301, 482, 371)(219, 172, 240, 924, 926, 310, 449, 308)(219, 172, 240, 924, 926, 310, 449, 308)(159, 151, 222, 896, 854, 298, 419, 300)(159, 151, 222, 896, 854, 298, 419, 300)(123, 145, 209, 823, 815, 279, 386, 240)(123, 145, 209, 823, 815, 279, 386, 240)(80, 106, 162, 733, 770, 228, 368, 208)(80, 106, 162, 733, 770, 228, 368, 208)(56, 95, 144, 661, 764, 207, 359, 192)(56, 95, 144, 661, 764, 207, 359, 192)(53, 76, 124, 610, 693, 164, 333, 137)(53, 76, 124, 610, 693, 164, 333, 137)(46, 70, 108, 548, 604, 121, 279, 102)(46, 70, 108, 548, 604, 121, 279, 102)(40, 55, 93, 470, 598, 105, 148, 87)(40, 55, 93, 470, 598, 105, 148, 87)(38, 54, 91, 462, 546, 101, 109, 65)(38, 54, 91, 462, 546, 101, 109, 65)(41, 57, 94, 451, 473, 101, 94, 56)(41, 57, 94, 451, 473, 101, 94, 56)(40, 53, 89, 426, 447, 92, 134, 50)(40, 53, 89, 426, 447, 92, 134, 50)(40, 55, 90, 360, 415, 120, 176, 60)(40, 55, 90, 360, 415, 120, 176, 60)(55, 61, 90, 380, 423, 205, 382, 99)(55, 61, 90, 380, 423, 205, 382, 99)(71, 71, 85, 367, 411, 287, 428, 125)(71, 71, 85, 367, 411, 287, 428, 125)(72, 71, 84, 312, 464, 302, 438, 129)(72, 71, 84, 312, 464, 302, 438, 129)(72, 73, 80, 287, 452, 308, 461, 132)(72, 73, 80, 287, 452, 308, 461, 132)(73, 72, 86, 442, 485, 315, 464, 127)(73, 72, 86, 442, 485, 315, 464, 127)(63, 67, 81, 447, 465, 268, 351, 102)(63, 67, 81, 447, 465, 268, 351, 102)(50, 68, 93, 514, 452, 194, 314, 79)(50, 68, 93, 514, 452, 194, 314, 79)(63, 73, 105, 597, 438, 233, 445, 108)(63, 73, 105, 597, 438, 233, 445, 108)(72, 82, 108, 606, 435, 234, 449, 125)(72, 82, 108, 606, 435, 234, 449, 125)(86, 94, 110, 513, 409, 316, 548, 148)(86, 94, 110, 513, 409, 316, 548, 148)(102, 99, 111, 508, 365, 413, 682, 183)(102, 99, 111, 508, 365, 413, 682, 183)(121, 110, 155, 472, 363, 481, 824, 221)(121, 110, 155, 472, 363, 481, 824, 221)(119, 109, 171, 389, 271, 533, 869, 228)(119, 109, 171, 389, 271, 533, 869, 228)(118, 107, 194, 396, 271, 541, 878, 223)(118, 107, 194, 396, 271, 541, 878, 223)(112, 107, 218, 400, 242, 550, 885, 218)(112, 107, 218, 400, 242, 550, 885, 218)(102, 101, 221, 390, 230, 494, 859, 193)(102, 101, 221, 390, 230, 494, 859, 193)(107, 94, 199, 339, 220, 472, 761, 213)(107, 94, 199, 339, 220, 472, 761, 213)(111, 91, 179, 315, 205, 458, 702, 201)(111, 91, 179, 315, 205, 458, 702, 201)(113, 85, 159, 284, 180, 480, 681, 203)(113, 85, 159, 284, 180, 480, 681, 203)(127, 75, 133, 299, 192, 503, 692, 209)(127, 75, 133, 299, 192, 503, 692, 209)(126, 79, 130, 279, 195, 513, 596, 210)(126, 79, 130, 279, 195, 513, 596, 210)(101, 62, 114, 263, 173, 487, 579, 139)(101, 62, 114, 263, 173, 487, 579, 139)(93, 55, 108, 236, 158, 433, 522, 124)(93, 55, 108, 236, 158, 433, 522, 124)(84, 52, 98, 230, 157, 393, 511, 113)(84, 52, 98, 230, 157, 393, 511, 113)(54, 42, 73, 167, 94, 265, 347, 75)(54, 42, 73, 167, 94, 265, 347, 75)(45, 39, 69, 178, 76, 221, 362, 63)(45, 39, 69, 178, 76, 221, 362, 63)(39, 36, 74, 160, 72, 166, 290, 58)(39, 36, 74, 160, 72, 166, 290, 58)(37, 39, 70, 142, 69, 115, 222, 52)(37, 39, 70, 142, 69, 115, 222, 52)(35, 38, 69, 140, 65, 136, 206, 62)(35, 38, 69, 140, 65, 136, 206, 62)(35, 39, 67, 136, 61, 197, 197, 64)(35, 39, 67, 136, 61, 197, 197, 64)(34, 34, 59, 105, 59, 203, 188, 90)(34, 34, 59, 105, 59, 203, 188, 90)(34, 34, 59, 105, 59, 203, 188, 90)(34, 35, 36, 64, 69, 341, 200, 111)(34, 35, 36, 64, 69, 341, 200, 111)(34, 34, 35, 56, 78, 380, 200, 124)(34, 34, 35, 56, 78, 380, 200, 124)(40, 34, 35, 57, 77, 379, 199, 120)(40, 34, 35, 57, 77, 379, 199, 120)(39, 35, 37, 56, 111, 352, 199, 119)(39, 35, 37, 56, 111, 352, 199, 119)(80, 43, 47, 74, 146, 353, 117, 101)(80, 43, 47, 74, 146, 353, 117, 101)(94, 50, 71, 186, 286, 243, 98, 81)(94, 50, 71, 186, 286, 243, 98, 81)(103, 58, 94, 193, 294, 181, 92, 105)(103, 58, 94, 193, 294, 181, 92, 105)(128, 98, 188, 207, 310, 167, 85, 105)(128, 98, 188, 207, 310, 167, 85, 105)(139, 104, 204, 211, 323, 149, 80, 104)(139, 104, 204, 211, 323, 149, 80, 104)(135, 107, 202, 206, 316, 134, 94, 104)(135, 107, 202, 206, 316, 134, 94, 104)(177, 124, 197, 112, 200, 90, 90, 112)(177, 124, 197, 112, 200, 90, 90, 112)(205, 136, 191, 106, 199, 79, 148, 121)(205, 136, 191, 106, 199, 79, 148, 121)(281, 126, 102, 81, 211, 72, 212, 193)(281, 126, 102, 81, 211, 72, 212, 193)(292, 135, 67, 131, 277, 79, 216, 204)(292, 135, 67, 131, 277, 79, 216, 204)(292, 145, 89, 248, 336, 84, 209, 214)(292, 145, 89, 248, 336, 84, 209, 214)(299, 130, 88, 260, 350, 84, 219, 216)(299, 130, 88, 260, 350, 84, 219, 216)(284, 118, 82, 261, 362, 79, 203, 208)(284, 118, 82, 261, 362, 79, 203, 208)(226, 112, 81, 265, 375, 73, 176, 192)(226, 112, 81, 265, 375, 73, 176, 192)(220, 107, 86, 258, 354, 72, 178, 184)(220, 107, 86, 258, 354, 72, 178, 184)(242, 93, 71, 209, 308, 64, 206, 188)(242, 93, 71, 209, 308, 64, 206, 188)(202, 89, 67, 210, 307, 60, 200, 185)(202, 89, 67, 210, 307, 60, 200, 185)(198, 91, 74, 224, 291, 67, 189, 170)(198, 91, 74, 224, 291, 67, 189, 170)(218, 81, 74, 222, 301, 70, 168, 114)(218, 81, 74, 222, 301, 70, 168, 114)(230, 85, 74, 241, 375, 121, 172, 140)(230, 85, 74, 241, 375, 121, 172, 140)(209, 91, 80, 204, 428, 131, 137, 164)(209, 91, 80, 204, 428, 131, 137, 164)(243, 109, 82, 202, 449, 163, 179, 229)(243, 109, 82, 202, 449, 163, 179, 229)(251, 112, 77, 190, 465, 172, 211, 241)(251, 112, 77, 190, 465, 172, 211, 241)(229, 140, 118, 412, 626, 199, 213, 246)(229, 140, 118, 412, 626, 199, 213, 246)(217, 149, 134, 462, 626, 196, 260, 237)(217, 149, 134, 462, 626, 196, 260, 237)(236, 158, 138, 494, 659, 203, 334, 307)(236, 158, 138, 494, 659, 203, 334, 307)(249, 186, 160, 554, 748, 204, 474, 279)(249, 186, 160, 554, 748, 204, 474, 279)(244, 186, 162, 592, 795, 197, 466, 286)(244, 186, 162, 592, 795, 197, 466, 286)(226, 166, 141, 498, 753, 178, 542, 337)(226, 166, 141, 498, 753, 178, 542, 337)(215, 152, 124, 453, 823, 158, 537, 372)(215, 152, 124, 453, 823, 158, 537, 372)(204, 144, 118, 437, 855, 151, 552, 332)(204, 144, 118, 437, 855, 151, 552, 332)(137, 92, 92, 398, 799, 126, 442, 324)(137, 92, 92, 398, 799, 126, 442, 324)(127, 94, 101, 370, 784, 138, 440, 313)(127, 94, 101, 370, 784, 138, 440, 313)(116, 93, 101, 374, 802, 138, 414, 277)(116, 93, 101, 374, 802, 138, 414, 277)(119, 91, 101, 359, 708, 133, 423, 326)(119, 91, 101, 359, 708, 133, 423, 326)(81, 81, 98, 418, 685, 131, 368, 334)(81, 81, 98, 418, 685, 131, 368, 334)(79, 76, 94, 409, 702, 124, 352, 334)(79, 76, 94, 409, 702, 124, 352, 334)(71, 68, 84, 411, 707, 113, 352, 336)(71, 68, 84, 411, 707, 113, 352, 336)(66, 63, 78, 400, 687, 116, 295, 327)(66, 63, 78, 400, 687, 116, 295, 327)(54, 60, 75, 448, 801, 115, 281, 279)(54, 60, 75, 448, 801, 115, 281, 279)(55, 60, 79, 382, 756, 117, 285, 273)(55, 60, 79, 382, 756, 117, 285, 273)(52, 61, 84, 421, 826, 139, 278, 271)(52, 61, 84, 421, 826, 139, 278, 271)(60, 59, 83, 396, 804, 136, 291, 267)(60, 59, 83, 396, 804, 136, 291, 267)(63, 65, 82, 379, 888, 132, 303, 258)(63, 65, 82, 379, 888, 132, 303, 258)(61, 69, 94, 356, 878, 145, 274, 199)(61, 69, 94, 356, 878, 145, 274, 199)(57, 68, 87, 340, 863, 146, 236, 130)(57, 68, 87, 340, 863, 146, 236, 130)(56, 68, 79, 262, 807, 120, 229, 111)(56, 68, 79, 262, 807, 120, 229, 111)(45, 67, 73, 251, 805, 119, 202, 98)(45, 67, 73, 251, 805, 119, 202, 98)(45, 67, 73, 251, 805, 119, 202, 98)(39, 62, 70, 228, 612, 109, 101, 77)(39, 62, 70, 228, 612, 109, 101, 77)(37, 57, 51, 152, 449, 83, 74, 65)(37, 57, 51, 152, 449, 83, 74, 65)(39, 59, 48, 144, 433, 63, 65, 48)(39, 59, 48, 144, 433, 63, 65, 48)(37, 56, 52, 106, 312, 64, 59, 41)(37, 56, 52, 106, 312, 64, 59, 41)(38, 57, 54, 110, 270, 59, 43, 35)(38, 57, 54, 110, 270, 59, 43, 35)(50, 67, 73, 108, 313, 60, 43, 33)(50, 67, 73, 108, 313, 60, 43, 33)(50, 66, 70, 107, 279, 67, 48, 32)(50, 66, 70, 107, 279, 67, 48, 32)(43, 61, 75, 242, 294, 67, 47, 25)(43, 61, 75, 242, 294, 67, 47, 25)(46, 61, 76, 254, 292, 77, 55, 30)(46, 61, 76, 254, 292, 77, 55, 30)(46, 64, 84, 263, 377, 89, 97, 31)(46, 64, 84, 263, 377, 89, 97, 31)(47, 68, 81, 284, 335, 98, 125, 48)(47, 68, 81, 284, 335, 98, 125, 48)(55, 74, 91, 314, 366, 181, 197, 61)(55, 74, 91, 314, 366, 181, 197, 61)(108, 101, 95, 243, 396, 251, 433, 155)(108, 101, 95, 243, 396, 251, 433, 155)(156, 150, 113, 243, 479, 386, 646, 233)(156, 150, 113, 243, 479, 386, 646, 233)(195, 188, 133, 292, 539, 543, 818, 283)(195, 188, 133, 292, 539, 543, 818, 283)(212, 200, 144, 309, 584, 594, 981, 319)(212, 200, 144, 309, 584, 594, 981, 319)(224, 213, 146, 282, 566, 620, 1045, 343)(224, 213, 146, 282, 566, 620, 1045, 343)(208, 206, 146, 281, 539, 617, 1006, 315)(208, 206, 146, 281, 539, 617, 1006, 315)(182, 177, 130, 280, 470, 559, 910, 265)(182, 177, 130, 280, 470, 559, 910, 265)(151, 141, 108, 235, 324, 523, 795, 221)(151, 141, 108, 235, 324, 523, 795, 221)(140, 133, 103, 202, 232, 475, 601, 179)(140, 133, 103, 202, 232, 475, 601, 179)(120, 110, 91, 201, 207, 440, 526, 128)(120, 110, 91, 201, 207, 440, 526, 128)(112, 101, 90, 196, 192, 450, 481, 129)(112, 101, 90, 196, 192, 450, 481, 129)(105, 97, 90, 189, 152, 460, 468, 129)(105, 97, 90, 189, 152, 460, 468, 129)(97, 99, 89, 168, 110, 345, 452, 118)(97, 99, 89, 168, 110, 345, 452, 118)(74, 80, 69, 163, 94, 345, 473, 97)(74, 80, 69, 163, 94, 345, 473, 97)(71, 78, 77, 191, 92, 318, 417, 97)(71, 78, 77, 191, 92, 318, 417, 97)(80, 87, 87, 218, 115, 298, 475, 95)(80, 87, 87, 218, 115, 298, 475, 95)(87, 93, 88, 222, 112, 282, 450, 92)(87, 93, 88, 222, 112, 282, 450, 92)(79, 84, 84, 228, 110, 266, 402, 85)(79, 84, 84, 228, 110, 266, 402, 85)(81, 88, 100, 280, 114, 298, 403, 92)(81, 88, 100, 280, 114, 298, 403, 92)(84, 89, 103, 270, 118, 306, 381, 97)(84, 89, 103, 270, 118, 306, 381, 97)(119, 98, 97, 258, 130, 361, 362, 98)(119, 98, 97, 258, 130, 361, 362, 98)(142, 103, 97, 252, 132, 371, 352, 120)(142, 103, 97, 252, 132, 371, 352, 120)(158, 110, 112, 312, 136, 377, 367, 123)(158, 110, 112, 312, 136, 377, 367, 123)(156, 102, 103, 354, 147, 360, 392, 115)(156, 102, 103, 354, 147, 360, 392, 115)(158, 103, 101, 368, 156, 364, 404, 114)(158, 103, 101, 368, 156, 364, 404, 114)(133, 93, 105, 372, 145, 301, 326, 107)(133, 93, 105, 372, 145, 301, 326, 107)(98, 78, 105, 379, 139, 263, 325, 75)(98, 78, 105, 379, 139, 263, 325, 75)(68, 65, 95, 353, 138, 251, 308, 69)(68, 65, 95, 353, 138, 251, 308, 69)(73, 79, 101, 418, 162, 224, 200, 83)(73, 79, 101, 418, 162, 224, 200, 83)(91, 102, 129, 552, 457, 222, 185, 126)(91, 102, 129, 552, 457, 222, 185, 126)(101, 105, 139, 648, 622, 207, 230, 154)(101, 105, 139, 648, 622, 207, 230, 154)(111, 118, 142, 656, 658, 256, 245, 176)(111, 118, 142, 656, 658, 256, 245, 176)(113, 123, 151, 688, 695, 264, 254, 177)(113, 123, 151, 688, 695, 264, 254, 177)(120, 120, 151, 611, 700, 300, 312, 174)(120, 120, 151, 611, 700, 300, 312, 174)(108, 102, 125, 494, 690, 287, 304, 143)(108, 102, 125, 494, 690, 287, 304, 143)(97, 99, 109, 365, 670, 266, 268, 119)(97, 99, 109, 365, 670, 266, 268, 119)(97, 99, 109, 365, 670, 266, 268, 119)(89, 91, 105, 356, 662, 217, 255, 105)(89, 91, 105, 356, 662, 217, 255, 105)(131, 89, 88, 278, 703, 195, 243, 152)(131, 89, 88, 278, 703, 195, 243, 152)(131, 92, 74, 259, 780, 133, 129, 192)(131, 92, 74, 259, 780, 133, 129, 192)(151, 115, 80, 231, 687, 124, 155, 278)(151, 115, 80, 231, 687, 124, 155, 278)(169, 118, 73, 207, 576, 122, 186, 375)(169, 118, 73, 207, 576, 122, 186, 375)(171, 122, 77, 193, 631, 118, 193, 375)(171, 122, 77, 193, 631, 118, 193, 375)(178, 121, 82, 318, 650, 115, 216, 476)(178, 121, 82, 318, 650, 115, 216, 476)(188, 119, 94, 395, 684, 120, 293, 488)(188, 119, 94, 395, 684, 120, 293, 488)(205, 101, 96, 501, 787, 153, 346, 524)(205, 101, 96, 501, 787, 153, 346, 524)(192, 100, 117, 695, 905, 166, 376, 494)(192, 100, 117, 695, 905, 166, 376, 494)(192, 91, 131, 753, 974, 200, 383, 502)(192, 91, 131, 753, 974, 200, 383, 502)(166, 92, 137, 787, 992, 202, 381, 398)(166, 92, 137, 787, 992, 202, 381, 398)(179, 165, 205, 862, 1011, 258, 471, 448)(179, 165, 205, 862, 1011, 258, 471, 448)(144, 165, 208, 850, 1000, 253, 472, 385)(144, 165, 208, 850, 1000, 253, 472, 385)(143, 170, 206, 740, 976, 268, 479, 391)(143, 170, 206, 740, 976, 268, 479, 391)(154, 185, 230, 829, 981, 288, 510, 413)(154, 185, 230, 829, 981, 288, 510, 413)(173, 225, 295, 956, 1025, 378, 577, 480)(173, 225, 295, 956, 1025, 378, 577, 480)(164, 182, 259, 945, 1011, 353, 513, 461)(164, 182, 259, 945, 1011, 353, 513, 461)(172, 189, 266, 975, 1099, 367, 529, 464)(172, 189, 266, 975, 1099, 367, 529, 464)(169, 184, 263, 971, 1133, 366, 523, 490)(169, 184, 263, 971, 1133, 366, 523, 490)(160, 168, 236, 877, 1071, 338, 532, 474)(160, 168, 236, 877, 1071, 338, 532, 474)(130, 109, 141, 665, 1022, 239, 472, 419)(130, 109, 141, 665, 1022, 239, 472, 419)(99, 102, 142, 644, 1031, 228, 425, 366)(99, 102, 142, 644, 1031, 228, 425, 366)(75, 84, 127, 571, 896, 211, 410, 373)(75, 84, 127, 571, 896, 211, 410, 373)(77, 94, 140, 621, 850, 190, 444, 329)(77, 94, 140, 621, 850, 190, 444, 329)(76, 105, 148, 609, 944, 205, 417, 327)(76, 105, 148, 609, 944, 205, 417, 327)(73, 109, 152, 598, 901, 197, 423, 369)(73, 109, 152, 598, 901, 197, 423, 369)(74, 106, 132, 498, 850, 185, 435, 364)(74, 106, 132, 498, 850, 185, 435, 364)(78, 106, 126, 472, 827, 161, 385, 325)(78, 106, 126, 472, 827, 161, 385, 325)(74, 93, 109, 356, 809, 159, 351, 324)(74, 93, 109, 356, 809, 159, 351, 324)(68, 75, 88, 345, 703, 124, 321, 315)(68, 75, 88, 345, 703, 124, 321, 315)(66, 71, 84, 455, 705, 120, 324, 256)(66, 71, 84, 455, 705, 120, 324, 256)(60, 65, 82, 469, 736, 106, 339, 280)(60, 65, 82, 469, 736, 106, 339, 280)(54, 57, 77, 449, 711, 100, 332, 287)(54, 57, 77, 449, 711, 100, 332, 287)(55, 56, 69, 445, 734, 106, 291, 256)(55, 56, 69, 445, 734, 106, 291, 256)(56, 54, 71, 416, 697, 100, 282, 257)(56, 54, 71, 416, 697, 100, 282, 257)(53, 47, 61, 303, 643, 93, 245, 266)(53, 47, 61, 303, 643, 93, 245, 266)(51, 47, 57, 256, 625, 95, 188, 230)(51, 47, 57, 256, 625, 95, 188, 230)(52, 45, 56, 250, 624, 93, 185, 211)(52, 45, 56, 250, 624, 93, 185, 211)(44, 40, 51, 224, 479, 66, 151, 167)(44, 40, 51, 224, 479, 66, 151, 167)(42, 42, 55, 215, 433, 58, 141, 144)(42, 42, 55, 215, 433, 58, 141, 144)(40, 44, 57, 175, 450, 61, 84, 67)(40, 44, 57, 175, 450, 61, 84, 67)(40, 42, 56, 153, 268, 57, 69, 55)(40, 42, 56, 153, 268, 57, 69, 55)(34, 39, 51, 146, 259, 54, 65, 47)(34, 39, 51, 146, 259, 54, 65, 47)(32, 38, 50, 144, 254, 54, 58, 39)(32, 38, 50, 144, 254, 54, 58, 39)(28, 30, 39, 127, 299, 53, 72, 42)(28, 30, 39, 127, 299, 53, 72, 42)(25, 28, 36, 171, 336, 53, 85, 53)(25, 28, 36, 171, 336, 53, 85, 53)(27, 32, 34, 204, 361, 55, 106, 88)(27, 32, 34, 204, 361, 55, 106, 88)(30, 32, 36, 205, 446, 59, 114, 94)(30, 32, 36, 205, 446, 59, 114, 94)(31, 35, 35, 205, 453, 57, 115, 94)(31, 35, 35, 205, 453, 57, 115, 94)(33, 37, 39, 208, 422, 59, 107, 93)(33, 37, 39, 208, 422, 59, 107, 93)(35, 37, 36, 151, 382, 58, 96, 87)(35, 37, 36, 151, 382, 58, 96, 87)(32, 37, 44, 210, 400, 66, 72, 51)(32, 37, 44, 210, 400, 66, 72, 51)(34, 41, 50, 247, 360, 74, 53, 44)(34, 41, 50, 247, 360, 74, 53, 44)(34, 41, 51, 251, 356, 78, 68, 44)(34, 41, 51, 251, 356, 78, 68, 44)(33, 43, 54, 257, 347, 83, 77, 43)(33, 43, 54, 257, 347, 83, 77, 43)(52, 55, 61, 316, 579, 136, 150, 72)(52, 55, 61, 316, 579, 136, 150, 72)(106, 118, 118, 336, 690, 259, 419, 162)(106, 118, 118, 336, 690, 259, 419, 162)(195, 216, 147, 389, 762, 350, 600, 236)(195, 216, 147, 389, 762, 350, 600, 236)(225, 241, 164, 401, 777, 429, 687, 266)(225, 241, 164, 401, 777, 429, 687, 266)(256, 259, 175, 402, 791, 541, 761, 318)(256, 259, 175, 402, 791, 541, 761, 318)(277, 269, 186, 365, 661, 630, 962, 369)(277, 269, 186, 365, 661, 630, 962, 369)(264, 252, 160, 311, 531, 624, 941, 342)(264, 252, 160, 311, 531, 624, 941, 342)(227, 189, 149, 356, 365, 664, 964, 345)(227, 189, 149, 356, 365, 664, 964, 345)(204, 161, 138, 429, 328, 652, 973, 328)(204, 161, 138, 429, 328, 652, 973, 328)(170, 132, 123, 435, 290, 569, 933, 299)(170, 132, 123, 435, 290, 569, 933, 299)(135, 111, 109, 434, 217, 463, 717, 230)(135, 111, 109, 434, 217, 463, 717, 230)(135, 104, 100, 448, 155, 437, 658, 231)(135, 104, 100, 448, 155, 437, 658, 231)(103, 85, 74, 379, 142, 333, 482, 157)(103, 85, 74, 379, 142, 333, 482, 157)(93, 76, 58, 279, 118, 275, 335, 149)(93, 76, 58, 279, 118, 275, 335, 149)(87, 77, 61, 275, 100, 280, 307, 104)(87, 77, 61, 275, 100, 280, 307, 104)(80, 69, 79, 414, 101, 284, 334, 109)(80, 69, 79, 414, 101, 284, 334, 109)(78, 68, 83, 405, 99, 259, 341, 104)(78, 68, 83, 405, 99, 259, 341, 104)(75, 59, 80, 376, 100, 207, 328, 91)(75, 59, 80, 376, 100, 207, 328, 91)(78, 66, 90, 394, 94, 214, 325, 91)(78, 66, 90, 394, 94, 214, 325, 91)(75, 64, 90, 390, 98, 199, 322, 89)(75, 64, 90, 390, 98, 199, 322, 89)(71, 69, 80, 284, 92, 184, 296, 74)(71, 69, 80, 284, 92, 184, 296, 74)(70, 66, 75, 263, 84, 196, 308, 67)(70, 66, 75, 263, 84, 196, 308, 67)(75, 68, 77, 256, 72, 203, 297, 71)(75, 68, 77, 256, 72, 203, 297, 71)(70, 62, 66, 220, 72, 171, 313, 67)(70, 62, 66, 220, 72, 171, 313, 67)(63, 59, 62, 211, 66, 170, 316, 58)(63, 59, 62, 211, 66, 170, 316, 58)(62, 58, 54, 122, 65, 167, 328, 55)(62, 58, 54, 122, 65, 167, 328, 55)(54, 56, 55, 107, 59, 193, 267, 59)(54, 56, 55, 107, 59, 193, 267, 59)(54, 56, 55, 107, 59, 193, 267, 59)(46, 56, 56, 110, 70, 181, 247, 53)(46, 56, 56, 110, 70, 181, 247, 53)(45, 51, 54, 103, 72, 176, 241, 43)(45, 51, 54, 103, 72, 176, 241, 43)(53, 54, 55, 99, 80, 173, 233, 48)(53, 54, 55, 99, 80, 173, 233, 48)(51, 47, 45, 90, 81, 168, 209, 46)(51, 47, 45, 90, 81, 168, 209, 46)(56, 50, 49, 108, 88, 98, 199, 42)(56, 50, 49, 108, 88, 98, 199, 42)(56, 45, 40, 87, 74, 86, 193, 40)(56, 45, 40, 87, 74, 86, 193, 40)(61, 46, 46, 89, 71, 86, 148, 44)(61, 46, 46, 89, 71, 86, 148, 44)(64, 49, 42, 87, 58, 68, 100, 38)(64, 49, 42, 87, 58, 68, 100, 38)(76, 54, 44, 89, 56, 62, 111, 43)(76, 54, 44, 89, 56, 62, 111, 43)(110, 63, 39, 68, 47, 57, 117, 38)(110, 63, 39, 68, 47, 57, 117, 38)(127, 67, 40, 66, 53, 53, 115, 37)(127, 67, 40, 66, 53, 53, 115, 37)(196, 75, 34, 65, 78, 44, 130, 90)(196, 75, 34, 65, 78, 44, 130, 90)(209, 90, 40, 152, 313, 49, 164, 126)(209, 90, 40, 152, 313, 49, 164, 126)(239, 99, 49, 174, 385, 54, 149, 142)(239, 99, 49, 174, 385, 54, 149, 142)(228, 95, 50, 241, 538, 63, 138, 156)(228, 95, 50, 241, 538, 63, 138, 156)(229, 111, 99, 437, 822, 117, 247, 233)(229, 111, 99, 437, 822, 117, 247, 233)(186, 131, 148, 576, 919, 171, 284, 320)(186, 131, 148, 576, 919, 171, 284, 320)(172, 133, 179, 639, 1022, 235, 399, 335)(172, 133, 179, 639, 1022, 235, 399, 335)(154, 132, 184, 676, 1072, 252, 434, 386)(154, 132, 184, 676, 1072, 252, 434, 386)(183, 185, 210, 733, 1082, 277, 520, 456)(183, 185, 210, 733, 1082, 277, 520, 456)(194, 219, 256, 736, 931, 323, 541, 581)(194, 219, 256, 736, 931, 323, 541, 581)(199, 223, 264, 853, 1125, 334, 565, 701)(199, 223, 264, 853, 1125, 334, 565, 701)(215, 239, 302, 931, 1069, 367, 577, 814)(215, 239, 302, 931, 1069, 367, 577, 814)(256, 266, 349, 1060, 1226, 422, 590, 875)(256, 266, 349, 1060, 1226, 422, 590, 875)(253, 251, 366, 1104, 1280, 464, 620, 858)(253, 251, 366, 1104, 1280, 464, 620, 858)(241, 220, 340, 1095, 1335, 437, 599, 801)(241, 220, 340, 1095, 1335, 437, 599, 801)(230, 205, 318, 964, 1192, 423, 611, 678)(230, 205, 318, 964, 1192, 423, 611, 678)(216, 178, 264, 850, 1191, 367, 566, 559)(216, 178, 264, 850, 1191, 367, 566, 559)(136, 130, 199, 685, 1047, 294, 543, 436)(136, 130, 199, 685, 1047, 294, 543, 436)(100, 97, 155, 573, 1047, 222, 433, 464)(100, 97, 155, 573, 1047, 222, 433, 464)(88, 82, 118, 523, 992, 198, 417, 409)(88, 82, 118, 523, 992, 198, 417, 409)(77, 76, 116, 470, 923, 176, 415, 454)(77, 76, 116, 470, 923, 176, 415, 454)(69, 77, 121, 536, 966, 178, 389, 417)(69, 77, 121, 536, 966, 178, 389, 417)(67, 74, 122, 573, 932, 188, 374, 392)(67, 74, 122, 573, 932, 188, 374, 392)(64, 73, 109, 607, 857, 162, 426, 375)(64, 73, 109, 607, 857, 162, 426, 375)(69, 77, 111, 572, 840, 163, 448, 401)(69, 77, 111, 572, 840, 163, 448, 401)(70, 82, 119, 595, 907, 173, 388, 373)(70, 82, 119, 595, 907, 173, 388, 373)(70, 85, 118, 551, 898, 169, 424, 382)(70, 85, 118, 551, 898, 169, 424, 382)(71, 84, 114, 505, 898, 156, 423, 384)(71, 84, 114, 505, 898, 156, 423, 384)(68, 79, 97, 407, 858, 145, 363, 331)(68, 79, 97, 407, 858, 145, 363, 331)(61, 75, 94, 415, 831, 140, 315, 323)(61, 75, 94, 415, 831, 140, 315, 323)(55, 64, 81, 402, 777, 123, 299, 253)(55, 64, 81, 402, 777, 123, 299, 253)(50, 57, 68, 362, 640, 105, 194, 229)(50, 57, 68, 362, 640, 105, 194, 229)(44, 54, 62, 298, 551, 92, 178, 219)(44, 54, 62, 298, 551, 92, 178, 219)(40, 47, 61, 284, 492, 84, 161, 203)(40, 47, 61, 284, 492, 84, 161, 203)(37, 53, 58, 253, 470, 77, 113, 99)(37, 53, 58, 253, 470, 77, 113, 99)(37, 54, 59, 244, 436, 68, 164, 94)(37, 54, 59, 244, 436, 68, 164, 94)(42, 56, 64, 223, 423, 62, 188, 81)(42, 56, 64, 223, 423, 62, 188, 81)(43, 53, 57, 207, 419, 59, 222, 142)(43, 53, 57, 207, 419, 59, 222, 142)(45, 57, 62, 310, 493, 65, 236, 143)(45, 57, 62, 310, 493, 65, 236, 143)(45, 57, 67, 317, 506, 73, 242, 147)(45, 57, 67, 317, 506, 73, 242, 147)(44, 62, 63, 302, 542, 74, 206, 143)(44, 62, 63, 302, 542, 74, 206, 143)(40, 58, 58, 304, 538, 76, 170, 139)(40, 58, 58, 304, 538, 76, 170, 139)(39, 56, 59, 333, 538, 84, 116, 74)(39, 56, 59, 333, 538, 84, 116, 74)(36, 54, 52, 235, 459, 79, 77, 64)(36, 54, 52, 235, 459, 79, 77, 64)(37, 52, 52, 205, 431, 64, 54, 53)(37, 52, 52, 205, 431, 64, 54, 53)(34, 46, 58, 194, 280, 64, 47, 40)(34, 46, 58, 194, 280, 64, 47, 40)(34, 52, 62, 190, 245, 70, 97, 36)(34, 52, 62, 190, 245, 70, 97, 36)(40, 66, 71, 123, 208, 105, 198, 55)(40, 66, 71, 123, 208, 105, 198, 55)(43, 67, 72, 105, 159, 158, 274, 70)(43, 67, 72, 105, 159, 158, 274, 70)(70, 80, 90, 298, 336, 252, 473, 123)(70, 80, 90, 298, 336, 252, 473, 123)(112, 93, 89, 341, 601, 414, 811, 194)(112, 93, 89, 341, 601, 414, 811, 194)(131, 100, 95, 347, 632, 468, 936, 257)(131, 100, 95, 347, 632, 468, 936, 257)(136, 99, 96, 352, 645, 558, 992, 272)(136, 99, 96, 352, 645, 558, 992, 272)(160, 112, 105, 356, 684, 616, 1079, 319)(160, 112, 105, 356, 684, 616, 1079, 319)(171, 115, 99, 264, 649, 625, 1059, 323)(171, 115, 99, 264, 649, 625, 1059, 323)(157, 112, 119, 363, 522, 593, 954, 296)(157, 112, 119, 363, 522, 593, 954, 296)(157, 109, 125, 432, 516, 604, 895, 270)(157, 109, 125, 432, 516, 604, 895, 270)(153, 105, 127, 460, 513, 528, 843, 254)(153, 105, 127, 460, 513, 528, 843, 254)(129, 92, 120, 466, 462, 458, 733, 194)(129, 92, 120, 466, 462, 458, 733, 194)(101, 75, 110, 447, 449, 421, 675, 167)(101, 75, 110, 447, 449, 421, 675, 167)(101, 75, 110, 447, 449, 421, 675, 167)(86, 65, 89, 338, 331, 345, 510, 155)(86, 65, 89, 338, 331, 345, 510, 155)(58, 53, 80, 304, 286, 257, 410, 115)(58, 53, 80, 304, 286, 257, 410, 115)(59, 59, 80, 273, 262, 249, 409, 116)(59, 59, 80, 273, 262, 249, 409, 116)(54, 56, 87, 280, 252, 231, 361, 105)(54, 56, 87, 280, 252, 231, 361, 105)(57, 55, 90, 299, 169, 220, 382, 97)(57, 55, 90, 299, 169, 220, 382, 97)(58, 56, 92, 298, 122, 204, 361, 88)(58, 56, 92, 298, 122, 204, 361, 88)(53, 55, 96, 254, 88, 256, 343, 78)(53, 55, 96, 254, 88, 256, 343, 78)(48, 48, 90, 237, 82, 251, 292, 68)(48, 48, 90, 237, 82, 251, 292, 68)(53, 51, 85, 300, 85, 260, 295, 82)(53, 51, 85, 300, 85, 260, 295, 82)(45, 47, 79, 278, 76, 245, 236, 74)(45, 47, 79, 278, 76, 245, 236, 74)(48, 48, 80, 272, 88, 275, 308, 94)(48, 48, 80, 272, 88, 275, 308, 94)(49, 52, 69, 247, 85, 225, 305, 93)(49, 52, 69, 247, 85, 225, 305, 93)(48, 47, 65, 247, 83, 217, 289, 92)(48, 47, 65, 247, 83, 217, 289, 92)(51, 52, 59, 144, 76, 251, 324, 86)(51, 52, 59, 144, 76, 251, 324, 86)(51, 58, 65, 134, 77, 254, 321, 85)(51, 58, 65, 134, 77, 254, 321, 85)(51, 53, 53, 121, 59, 214, 237, 59)(51, 53, 53, 121, 59, 214, 237, 59)(51, 53, 53, 121, 59, 214, 237, 59)(56, 57, 53, 115, 53, 215, 225, 58)(56, 57, 53, 115, 53, 215, 225, 58)(57, 58, 51, 106, 55, 241, 267, 60)(57, 58, 51, 106, 55, 241, 267, 60)(55, 54, 56, 77, 63, 190, 219, 49)(55, 54, 56, 77, 63, 190, 219, 49)(53, 46, 49, 68, 61, 171, 212, 46)(53, 46, 49, 68, 61, 171, 212, 46)(51, 50, 52, 67, 64, 171, 209, 46)(51, 50, 52, 67, 64, 171, 209, 46)(42, 43, 46, 75, 64, 147, 195, 40)(42, 43, 46, 75, 64, 147, 195, 40)(42, 46, 49, 78, 62, 86, 123, 34)(42, 46, 49, 78, 62, 86, 123, 34)(50, 45, 44, 73, 42, 66, 89, 29)(50, 45, 44, 73, 42, 66, 89, 29)(51, 54, 45, 74, 43, 59, 72, 29)(51, 54, 45, 74, 43, 59, 72, 29)(55, 52, 40, 72, 43, 46, 53, 26)(55, 52, 40, 72, 43, 46, 53, 26)(195, 75, 41, 55, 51, 41, 69, 79)(195, 75, 41, 55, 51, 41, 69, 79)(301, 126, 42, 98, 165, 53, 119, 111)(301, 126, 42, 98, 165, 53, 119, 111)(329, 155, 71, 283, 391, 73, 221, 274)(329, 155, 71, 283, 391, 73, 221, 274)(391, 180, 95, 351, 623, 122, 361, 483)(391, 180, 95, 351, 623, 122, 361, 483)(430, 189, 112, 476, 761, 151, 405, 560)(430, 189, 112, 476, 761, 151, 405, 560)(423, 198, 142, 625, 986, 191, 480, 740)(423, 198, 142, 625, 986, 191, 480, 740)(403, 212, 182, 870, 1169, 241, 590, 923)(403, 212, 182, 870, 1169, 241, 590, 923)(408, 214, 188, 917, 1181, 269, 690, 973)(408, 214, 188, 917, 1181, 269, 690, 973)(363, 198, 184, 981, 1181, 267, 684, 922)(363, 198, 184, 981, 1181, 267, 684, 922)(329, 196, 194, 1016, 1248, 284, 700, 888)(329, 196, 194, 1016, 1248, 284, 700, 888)(297, 189, 186, 976, 1182, 263, 667, 828)(297, 189, 186, 976, 1182, 263, 667, 828)(240, 151, 169, 893, 1151, 252, 601, 675)(240, 151, 169, 893, 1151, 252, 601, 675)(209, 122, 160, 855, 1145, 225, 472, 578)(209, 122, 160, 855, 1145, 225, 472, 578)(186, 115, 156, 828, 1083, 212, 395, 545)(186, 115, 156, 828, 1083, 212, 395, 545)(167, 108, 135, 750, 987, 177, 347, 553)(167, 108, 135, 750, 987, 177, 347, 553)(146, 93, 125, 779, 931, 175, 350, 454)(146, 93, 125, 779, 931, 175, 350, 454)(126, 82, 105, 662, 834, 148, 318, 378)(126, 82, 105, 662, 834, 148, 318, 378)(86, 85, 114, 637, 761, 148, 338, 333)(86, 85, 114, 637, 761, 148, 338, 333)(94, 87, 115, 542, 705, 144, 357, 312)(94, 87, 115, 542, 705, 144, 357, 312)(85, 98, 133, 549, 710, 145, 339, 286)(85, 98, 133, 549, 710, 145, 339, 286)(82, 102, 139, 458, 696, 154, 307, 214)(82, 102, 139, 458, 696, 154, 307, 214)(76, 99, 132, 408, 569, 126, 278, 188)(76, 99, 132, 408, 569, 126, 278, 188)(78, 97, 130, 531, 697, 163, 258, 182)(78, 97, 130, 531, 697, 163, 258, 182)(72, 102, 137, 572, 748, 172, 222, 174)(72, 102, 137, 572, 748, 172, 222, 174)(72, 102, 137, 572, 748, 172, 222, 174)(70, 86, 119, 538, 683, 165, 215, 176)(70, 86, 119, 538, 683, 165, 215, 176)(65, 76, 104, 538, 723, 154, 254, 267)(65, 76, 104, 538, 723, 154, 254, 267)(68, 74, 104, 537, 729, 157, 256, 276)(68, 74, 104, 537, 729, 157, 256, 276)(73, 72, 94, 439, 733, 131, 218, 291)(73, 72, 94, 439, 733, 131, 218, 291)(62, 53, 79, 398, 709, 118, 217, 285)(62, 53, 79, 398, 709, 118, 217, 285)(65, 55, 78, 383, 692, 116, 211, 267)(65, 55, 78, 383, 692, 116, 211, 267)(59, 52, 72, 338, 616, 111, 148, 177)(59, 52, 72, 338, 616, 111, 148, 177)(58, 52, 69, 342, 607, 107, 125, 143)(58, 52, 69, 342, 607, 107, 125, 143)(46, 43, 54, 283, 468, 66, 92, 101)(46, 43, 54, 283, 468, 66, 92, 101)(48, 47, 56, 320, 487, 68, 83, 80)(48, 47, 56, 320, 487, 68, 83, 80)(39, 44, 56, 360, 539, 67, 82, 96)(39, 44, 56, 360, 539, 67, 82, 96)(40, 45, 56, 359, 501, 67, 88, 106)(40, 45, 56, 359, 501, 67, 88, 106)(48, 42, 58, 363, 547, 82, 256, 264)(48, 42, 58, 363, 547, 82, 256, 264)(49, 45, 59, 311, 556, 86, 272, 274)(49, 45, 59, 311, 556, 86, 272, 274)(46, 44, 59, 330, 522, 85, 277, 281)(46, 44, 59, 330, 522, 85, 277, 281)(46, 44, 57, 286, 494, 83, 274, 275)(46, 44, 57, 286, 494, 83, 274, 275)(47, 48, 58, 292, 496, 84, 274, 272)(47, 48, 58, 292, 496, 84, 274, 272)(36, 48, 58, 283, 483, 67, 138, 130)(36, 48, 58, 283, 483, 67, 138, 130)(33, 49, 57, 280, 442, 63, 104, 105)(33, 49, 57, 280, 442, 63, 104, 105)(36, 50, 54, 192, 410, 65, 99, 85)(36, 50, 54, 192, 410, 65, 99, 85)(41, 56, 65, 290, 429, 91, 129, 79)(41, 56, 65, 290, 429, 91, 129, 79)(45, 57, 69, 291, 424, 111, 198, 75)(45, 57, 69, 291, 424, 111, 198, 75)(49, 56, 65, 286, 381, 125, 222, 73)(49, 56, 65, 286, 381, 125, 222, 73)(67, 68, 76, 310, 434, 168, 259, 94)(67, 68, 76, 310, 434, 168, 259, 94)(87, 84, 85, 329, 459, 224, 409, 140)(87, 84, 85, 329, 459, 224, 409, 140)(93, 87, 77, 238, 414, 262, 437, 149)(93, 87, 77, 238, 414, 262, 437, 149)(123, 108, 90, 261, 546, 464, 551, 201)(123, 108, 90, 261, 546, 464, 551, 201)(123, 108, 90, 261, 546, 464, 551, 201)(145, 126, 103, 300, 632, 580, 735, 268)(145, 126, 103, 300, 632, 580, 735, 268)(149, 131, 107, 292, 711, 584, 856, 277)(149, 131, 107, 292, 711, 584, 856, 277)(148, 132, 121, 284, 722, 641, 955, 275)(148, 132, 121, 284, 722, 641, 955, 275)(148, 134, 129, 329, 722, 667, 986, 286)(148, 134, 129, 329, 722, 667, 986, 286)(131, 126, 131, 304, 708, 592, 974, 263)(131, 126, 131, 304, 708, 592, 974, 263)(107, 109, 128, 309, 678, 506, 866, 199)(107, 109, 128, 309, 678, 506, 866, 199)(101, 102, 140, 346, 599, 532, 772, 212)(101, 102, 140, 346, 599, 532, 772, 212)(86, 87, 123, 331, 560, 448, 593, 191)(86, 87, 123, 331, 560, 448, 593, 191)(86, 80, 115, 296, 519, 401, 517, 172)(86, 80, 115, 296, 519, 401, 517, 172)(75, 62, 99, 290, 384, 332, 403, 152)(75, 62, 99, 290, 384, 332, 403, 152)(74, 62, 92, 242, 275, 286, 377, 141)(74, 62, 92, 242, 275, 286, 377, 141)(62, 53, 54, 160, 135, 198, 326, 80)(62, 53, 54, 160, 135, 198, 326, 80)(64, 47, 49, 122, 122, 234, 294, 73)(64, 47, 49, 122, 122, 234, 294, 73)(56, 46, 58, 114, 115, 205, 283, 56)(56, 46, 58, 114, 115, 205, 283, 56)(57, 50, 72, 140, 95, 207, 301, 50)(57, 50, 72, 140, 95, 207, 301, 50)(52, 49, 74, 139, 73, 207, 280, 50)(52, 49, 74, 139, 73, 207, 280, 50)(60, 48, 77, 139, 65, 219, 253, 57)(60, 48, 77, 139, 65, 219, 253, 57)(65, 50, 76, 140, 81, 210, 276, 66)(65, 50, 76, 140, 81, 210, 276, 66)(64, 49, 73, 127, 81, 204, 288, 65)(64, 49, 73, 127, 81, 204, 288, 65)(65, 48, 61, 101, 88, 232, 288, 69)(65, 48, 61, 101, 88, 232, 288, 69)(66, 47, 63, 109, 91, 249, 264, 68)(66, 47, 63, 109, 91, 249, 264, 68)(54, 42, 58, 99, 90, 238, 252, 61)(54, 42, 58, 99, 90, 238, 252, 61)(70, 60, 67, 98, 65, 209, 326, 50)(70, 60, 67, 98, 65, 209, 326, 50)(82, 70, 64, 89, 68, 226, 334, 54)(82, 70, 64, 89, 68, 226, 334, 54)(79, 74, 64, 86, 54, 184, 317, 48)(79, 74, 64, 86, 54, 184, 317, 48)(79, 74, 56, 69, 49, 154, 317, 45)(79, 74, 56, 69, 49, 154, 317, 45)(87, 77, 59, 70, 48, 150, 320, 47)(87, 77, 59, 70, 48, 150, 320, 47)(72, 67, 47, 64, 48, 117, 198, 42)(72, 67, 47, 64, 48, 117, 198, 42)(59, 59, 44, 59, 42, 72, 163, 36)(59, 59, 44, 59, 42, 72, 163, 36)(84, 56, 41, 49, 42, 54, 143, 34)(84, 56, 41, 49, 42, 54, 143, 34)(91, 56, 41, 44, 45, 46, 126, 35)(91, 56, 41, 44, 45, 46, 126, 35)(85, 55, 38, 39, 45, 46, 111, 31)(85, 55, 38, 39, 45, 46, 111, 31)(90, 52, 39, 32, 42, 38, 58, 32)(90, 52, 39, 32, 42, 38, 58, 32)(133, 55, 42, 29, 42, 32, 49, 29)(133, 55, 42, 29, 42, 32, 49, 29)(126, 49, 43, 31, 41, 33, 53, 30)(126, 49, 43, 31, 41, 33, 53, 30)(141, 57, 43, 29, 34, 30, 77, 37)(141, 57, 43, 29, 34, 30, 77, 37)(224, 89, 48, 29, 39, 33, 152, 68)(224, 89, 48, 29, 39, 33, 152, 68)(228, 98, 51, 34, 38, 36, 182, 90)(228, 98, 51, 34, 38, 36, 182, 90)(248, 123, 54, 36, 37, 39, 188, 124)(248, 123, 54, 36, 37, 39, 188, 124)(272, 136, 57, 37, 38, 47, 297, 167)(272, 136, 57, 37, 38, 47, 297, 167)(288, 142, 58, 62, 69, 59, 321, 263)(288, 142, 58, 62, 69, 59, 321, 263)(259, 144, 57, 78, 100, 64, 325, 332)(259, 144, 57, 78, 100, 64, 325, 332)(357, 172, 61, 83, 138, 78, 432, 393)(357, 172, 61, 83, 138, 78, 432, 393)(414, 185, 75, 88, 210, 94, 463, 439)(414, 185, 75, 88, 210, 94, 463, 439)(487, 203, 80, 111, 318, 125, 600, 610)(487, 203, 80, 111, 318, 125, 600, 610)(740, 306, 107, 118, 330, 138, 671, 701)(740, 306, 107, 118, 330, 138, 671, 701)(826, 321, 115, 147, 360, 141, 702, 712)(826, 321, 115, 147, 360, 141, 702, 712)(880, 328, 112, 149, 367, 145, 744, 711)(880, 328, 112, 149, 367, 145, 744, 711)(930, 333, 105, 181, 373, 149, 820, 737)(930, 333, 105, 181, 373, 149, 820, 737)(931, 330, 109, 180, 298, 135, 766, 638)(931, 330, 109, 180, 298, 135, 766, 638)(782, 257, 98, 174, 298, 157, 802, 596)(782, 257, 98, 174, 298, 157, 802, 596)(699, 250, 91, 158, 283, 170, 818, 582)(699, 250, 91, 158, 283, 170, 818, 582)(593, 228, 94, 158, 268, 161, 735, 552)(593, 228, 94, 158, 268, 161, 735, 552)(479, 212, 92, 122, 225, 155, 713, 490)(479, 212, 92, 122, 225, 155, 713, 490)(479, 212, 92, 122, 225, 155, 713, 490)(420, 214, 86, 108, 214, 159, 709, 459)(420, 214, 86, 108, 214, 159, 709, 459)(337, 196, 76, 105, 208, 131, 605, 329)(337, 196, 76, 105, 208, 131, 605, 329)(304, 172, 74, 83, 166, 110, 537, 260)(304, 172, 74, 83, 166, 110, 537, 260)(276, 159, 73, 82, 160, 109, 518, 239)(276, 159, 73, 82, 160, 109, 518, 239)(217, 136, 70, 112, 143, 100, 393, 198)(217, 136, 70, 112, 143, 100, 393, 198)(139, 106, 94, 316, 338, 97, 223, 125)(139, 106, 94, 316, 338, 97, 223, 125)(119, 98, 123, 387, 383, 107, 148, 91)(119, 98, 123, 387, 383, 107, 148, 91)(103, 122, 189, 531, 503, 148, 119, 76)(103, 122, 189, 531, 503, 148, 119, 76)(85, 140, 222, 627, 616, 180, 107, 71)(85, 140, 222, 627, 616, 180, 107, 71)(70, 144, 243, 700, 685, 183, 95, 60)(70, 144, 243, 700, 685, 183, 95, 60)(72, 196, 380, 761, 726, 207, 91, 62)(72, 196, 380, 761, 726, 207, 91, 62)(88, 268, 542, 940, 882, 225, 96, 69)(88, 268, 542, 940, 882, 225, 96, 69)(134, 331, 621, 1064, 1012, 342, 150, 108)(134, 331, 621, 1064, 1012, 342, 150, 108)(146, 349, 663, 1091, 1045, 373, 167, 121)(146, 349, 663, 1091, 1045, 373, 167, 121)(153, 366, 694, 1226, 1129, 407, 177, 126)(153, 366, 694, 1226, 1129, 407, 177, 126)(172, 371, 682, 1230, 1120, 549, 212, 147)(172, 371, 682, 1230, 1120, 549, 212, 147)(195, 412, 723, 1172, 1188, 679, 265, 176)(195, 412, 723, 1172, 1188, 679, 265, 176)(183, 389, 686, 1141, 1196, 664, 261, 170)(183, 389, 686, 1141, 1196, 664, 261, 170)(193, 400, 689, 1206, 1178, 688, 275, 176)(193, 400, 689, 1206, 1178, 688, 275, 176)(193, 400, 689, 1206, 1178, 688, 275, 176)(198, 406, 691, 1161, 1202, 711, 287, 182)(198, 406, 691, 1161, 1202, 711, 287, 182)(199, 410, 684, 1305, 1212, 651, 286, 184)(199, 410, 684, 1305, 1212, 651, 286, 184)(170, 325, 517, 1300, 1116, 523, 242, 159)(170, 325, 517, 1300, 1116, 523, 242, 159)(155, 292, 471, 1260, 980, 481, 217, 145)(155, 292, 471, 1260, 980, 481, 217, 145)(140, 259, 396, 1143, 918, 421, 187, 129)(140, 259, 396, 1143, 918, 421, 187, 129)(126, 221, 321, 1035, 733, 345, 161, 116)(126, 221, 321, 1035, 733, 345, 161, 116)(470, 245, 207, 745, 624, 236, 152, 149)(470, 245, 207, 745, 624, 236, 152, 149)(560, 321, 201, 612, 418, 193, 205, 185)(560, 321, 201, 612, 418, 193, 205, 185)(712, 421, 184, 424, 310, 163, 230, 225)(712, 421, 184, 424, 310, 163, 230, 225)(801, 457, 182, 390, 248, 151, 311, 319)(801, 457, 182, 390, 248, 151, 311, 319)(920, 517, 192, 287, 204, 159, 485, 360)(920, 517, 192, 287, 204, 159, 485, 360)(900, 502, 197, 248, 197, 164, 650, 421)(900, 502, 197, 248, 197, 164, 650, 421)(1034, 509, 187, 204, 192, 177, 674, 428)(1034, 509, 187, 204, 192, 177, 674, 428)(1024, 474, 172, 178, 177, 191, 708, 469)(1024, 474, 172, 178, 177, 191, 708, 469)(1028, 491, 175, 157, 180, 220, 782, 564)(1028, 491, 175, 157, 180, 220, 782, 564)(975, 442, 163, 143, 205, 224, 763, 643)(975, 442, 163, 143, 205, 224, 763, 643)(902, 420, 150, 156, 255, 216, 629, 631)(902, 420, 150, 156, 255, 216, 629, 631)(719, 352, 127, 147, 247, 203, 642, 671)(719, 352, 127, 147, 247, 203, 642, 671)(609, 292, 111, 148, 260, 193, 688, 646)(609, 292, 111, 148, 260, 193, 688, 646)(492, 195, 75, 130, 259, 148, 584, 539)(492, 195, 75, 130, 259, 148, 584, 539)(423, 176, 72, 129, 247, 134, 606, 456)(423, 176, 72, 129, 247, 134, 606, 456)(400, 170, 65, 97, 184, 129, 628, 408)(400, 170, 65, 97, 184, 129, 628, 408)(360, 171, 67, 97, 192, 123, 611, 318)(360, 171, 67, 97, 192, 123, 611, 318)(322, 157, 70, 84, 180, 95, 508, 285)(322, 157, 70, 84, 180, 95, 508, 285)(304, 128, 62, 77, 178, 78, 484, 244)(304, 128, 62, 77, 178, 78, 484, 244)(245, 106, 67, 84, 169, 63, 320, 143)(245, 106, 67, 84, 169, 63, 320, 143)(199, 102, 87, 117, 245, 63, 252, 113)(199, 102, 87, 117, 245, 63, 252, 113)(127, 127, 203, 429, 417, 132, 124, 92)(127, 127, 203, 429, 417, 132, 124, 92)(127, 127, 203, 429, 417, 132, 124, 92)(117, 143, 252, 596, 532, 170, 105, 80)(117, 143, 252, 596, 532, 170, 105, 80)(117, 143, 252, 596, 532, 170, 105, 80)(94, 179, 320, 674, 647, 210, 103, 70)(94, 179, 320, 674, 647, 210, 103, 70)(90, 225, 406, 783, 774, 258, 101, 63)(90, 225, 406, 783, 774, 258, 101, 63)(100, 255, 473, 897, 887, 289, 108, 71)(100, 255, 473, 897, 887, 289, 108, 71)(109, 289, 545, 999, 1037, 361, 138, 86)(109, 289, 545, 999, 1037, 361, 138, 86)(119, 296, 557, 1008, 1121, 374, 146, 97)(119, 296, 557, 1008, 1121, 374, 146, 97)(119, 296, 557, 1008, 1121, 374, 146, 97)(127, 303, 578, 1030, 1184, 377, 154, 108)(127, 303, 578, 1030, 1184, 377, 154, 108)(129, 287, 553, 1054, 1236, 365, 156, 110)(129, 287, 553, 1054, 1236, 365, 156, 110)(141, 299, 566, 1075, 1298, 419, 178, 124)(141, 299, 566, 1075, 1298, 419, 178, 124)(148, 290, 535, 1023, 1256, 433, 188, 133)(148, 290, 535, 1023, 1256, 433, 188, 133)(149, 289, 526, 1162, 1199, 439, 193, 135)(149, 289, 526, 1162, 1199, 439, 193, 135)(142, 271, 485, 1137, 1124, 436, 189, 130)(142, 271, 485, 1137, 1124, 436, 189, 130)(148, 278, 488, 1202, 1024, 464, 201, 138)(148, 278, 488, 1202, 1024, 464, 201, 138)(139, 264, 455, 1215, 900, 434, 189, 132)(139, 264, 455, 1215, 900, 434, 189, 132)(121, 241, 426, 1246, 821, 362, 161, 112)(121, 241, 426, 1246, 821, 362, 161, 112)(116, 238, 419, 1088, 779, 338, 148, 106)(116, 238, 419, 1088, 779, 338, 148, 106)(123, 243, 420, 1107, 794, 371, 166, 116)(123, 243, 420, 1107, 794, 371, 166, 116)(125, 237, 422, 995, 766, 342, 157, 113)(125, 237, 422, 995, 766, 342, 157, 113)(118, 214, 390, 919, 732, 302, 142, 103)(118, 214, 390, 919, 732, 302, 142, 103)(112, 191, 336, 876, 724, 293, 138, 99)(112, 191, 336, 876, 724, 293, 138, 99)(115, 171, 310, 831, 687, 282, 173, 150)(115, 171, 310, 831, 687, 282, 173, 150)(115, 171, 310, 831, 687, 282, 173, 150)(271, 185, 277, 803, 621, 205, 163, 162)(271, 185, 277, 803, 621, 205, 163, 162)(429, 195, 208, 739, 594, 160, 261, 192)(429, 195, 208, 739, 594, 160, 261, 192)(501, 207, 165, 652, 523, 142, 325, 308)(501, 207, 165, 652, 523, 142, 325, 308)(715, 418, 178, 425, 354, 118, 535, 423)(715, 418, 178, 425, 354, 118, 535, 423)(859, 503, 179, 371, 318, 116, 548, 520)(859, 503, 179, 371, 318, 116, 548, 520)(928, 576, 202, 250, 257, 138, 583, 616)(928, 576, 202, 250, 257, 138, 583, 616)(999, 636, 212, 195, 221, 159, 641, 667)(999, 636, 212, 195, 221, 159, 641, 667)(997, 665, 215, 186, 236, 170, 660, 705)(997, 665, 215, 186, 236, 170, 660, 705)(885, 564, 202, 164, 279, 172, 540, 671)(885, 564, 202, 164, 279, 172, 540, 671)(885, 564, 202, 164, 279, 172, 540, 671)(783, 502, 203, 153, 302, 177, 614, 638)(783, 502, 203, 153, 302, 177, 614, 638)(666, 409, 177, 143, 288, 167, 634, 623)(666, 409, 177, 143, 288, 167, 634, 623)(470, 291, 149, 126, 290, 147, 570, 566)(470, 291, 149, 126, 290, 147, 570, 566)(411, 200, 128, 129, 269, 130, 536, 474)(411, 200, 128, 129, 269, 130, 536, 474)(345, 178, 106, 127, 208, 115, 512, 436)(345, 178, 106, 127, 208, 115, 512, 436)(255, 134, 81, 117, 148, 103, 416, 364)(255, 134, 81, 117, 148, 103, 416, 364)(227, 103, 76, 116, 172, 97, 433, 225)(227, 103, 76, 116, 172, 97, 433, 225)(172, 87, 73, 112, 159, 95, 397, 204)(172, 87, 73, 112, 159, 95, 397, 204)(136, 84, 71, 81, 160, 99, 380, 169)(136, 84, 71, 81, 160, 99, 380, 169)(132, 79, 56, 64, 167, 93, 368, 163)(132, 79, 56, 64, 167, 93, 368, 163)(115, 76, 81, 71, 177, 88, 337, 149)(115, 76, 81, 71, 177, 88, 337, 149)(91, 88, 134, 305, 197, 77, 183, 89)(91, 88, 134, 305, 197, 77, 183, 89)(51, 89, 157, 409, 260, 84, 153, 74)(51, 89, 157, 409, 260, 84, 153, 74)(59, 119, 188, 550, 514, 157, 121, 68)(59, 119, 188, 550, 514, 157, 121, 68)(59, 119, 188, 550, 514, 157, 121, 68)(71, 167, 285, 645, 714, 225, 116, 67)(71, 167, 285, 645, 714, 225, 116, 67)(80, 183, 316, 779, 814, 252, 112, 67)(80, 183, 316, 779, 814, 252, 112, 67)(84, 196, 337, 851, 922, 279, 111, 65)(84, 196, 337, 851, 922, 279, 111, 65)(94, 222, 402, 999, 995, 332, 127, 76)(94, 222, 402, 999, 995, 332, 127, 76)(100, 227, 423, 1065, 1019, 327, 120, 78)(100, 227, 423, 1065, 1019, 327, 120, 78)(115, 244, 454, 1086, 1097, 349, 137, 97)(115, 244, 454, 1086, 1097, 349, 137, 97)(139, 300, 570, 1167, 1201, 433, 172, 123)(139, 300, 570, 1167, 1201, 433, 172, 123)(169, 358, 656, 1296, 1393, 538, 219, 154)(169, 358, 656, 1296, 1393, 538, 219, 154)(170, 353, 650, 1318, 1419, 537, 220, 154)(170, 353, 650, 1318, 1419, 537, 220, 154)(167, 347, 644, 1346, 1361, 537, 225, 154)(167, 347, 644, 1346, 1361, 537, 225, 154)(156, 327, 613, 1356, 1288, 523, 219, 147)(156, 327, 613, 1356, 1288, 523, 219, 147)(134, 273, 506, 1290, 1199, 450, 191, 126)(134, 273, 506, 1290, 1199, 450, 191, 126)(90, 180, 368, 1161, 945, 308, 134, 86)(90, 180, 368, 1161, 945, 308, 134, 86)(84, 162, 332, 1044, 900, 273, 123, 80)(84, 162, 332, 1044, 900, 273, 123, 80)(77, 153, 316, 893, 869, 253, 110, 74)(77, 153, 316, 893, 869, 253, 110, 74)(77, 153, 316, 893, 869, 253, 110, 74)(73, 142, 266, 863, 762, 202, 88, 58)(73, 142, 266, 863, 762, 202, 88, 58)(73, 130, 230, 770, 652, 185, 84, 57)(73, 130, 230, 770, 652, 185, 84, 57)(163, 131, 206, 647, 588, 163, 72, 62)(163, 131, 206, 647, 588, 163, 72, 62)(289, 154, 154, 525, 442, 117, 62, 79)(289, 154, 154, 525, 442, 117, 62, 79)(404, 190, 136, 475, 439, 99, 171, 115)(404, 190, 136, 475, 439, 99, 171, 115)(495, 205, 115, 311, 385, 91, 244, 145)(495, 205, 115, 311, 385, 91, 244, 145)(559, 247, 118, 229, 366, 96, 257, 152)(559, 247, 118, 229, 366, 96, 257, 152)(652, 296, 124, 153, 265, 95, 279, 176)(652, 296, 124, 153, 265, 95, 279, 176)(752, 342, 121, 147, 268, 113, 403, 287)(752, 342, 121, 147, 268, 113, 403, 287)(752, 342, 121, 147, 268, 113, 403, 287)(841, 361, 122, 133, 206, 111, 394, 296)(841, 361, 122, 133, 206, 111, 394, 296)(858, 363, 123, 130, 215, 117, 426, 305)(858, 363, 123, 130, 215, 117, 426, 305)(873, 341, 116, 118, 220, 118, 420, 320)(873, 341, 116, 118, 220, 118, 420, 320)(815, 296, 106, 117, 203, 112, 411, 309)(815, 296, 106, 117, 203, 112, 411, 309)(687, 223, 101, 111, 181, 108, 296, 207)(687, 223, 101, 111, 181, 108, 296, 207)(505, 153, 81, 106, 189, 99, 265, 171)(505, 153, 81, 106, 189, 99, 265, 171)(389, 103, 67, 95, 181, 87, 118, 129)(389, 103, 67, 95, 181, 87, 118, 129)(248, 83, 53, 90, 163, 78, 130, 73)(248, 83, 53, 90, 163, 78, 130, 73)(168, 66, 46, 77, 120, 75, 126, 60)(168, 66, 46, 77, 120, 75, 126, 60)(150, 62, 39, 58, 117, 54, 165, 53)(150, 62, 39, 58, 117, 54, 165, 53)(237, 69, 31, 50, 104, 58, 224, 60)(237, 69, 31, 50, 104, 58, 224, 60)(233, 82, 33, 50, 107, 65, 249, 67)(233, 82, 33, 50, 107, 65, 249, 67)(292, 93, 46, 52, 109, 80, 331, 99)(292, 93, 46, 52, 109, 80, 331, 99)(296, 100, 47, 51, 105, 81, 336, 105)(296, 100, 47, 51, 105, 81, 336, 105)(298, 101, 51, 54, 134, 81, 331, 105)(298, 101, 51, 54, 134, 81, 331, 105)(233, 93, 51, 58, 134, 78, 305, 104)(233, 93, 51, 58, 134, 78, 305, 104)(221, 78, 52, 73, 166, 72, 292, 100)(221, 78, 52, 73, 166, 72, 292, 100)(119, 62, 45, 165, 209, 58, 185, 68)(119, 62, 45, 165, 209, 58, 185, 68)(108, 87, 125, 401, 567, 143, 171, 59)(108, 87, 125, 401, 567, 143, 171, 59)(108, 87, 125, 401, 567, 143, 171, 59)(108, 101, 183, 620, 893, 249, 159, 75)(108, 101, 183, 620, 893, 249, 159, 75)(87, 125, 275, 790, 1101, 271, 136, 74)(87, 125, 275, 790, 1101, 271, 136, 74)(85, 154, 315, 985, 1230, 302, 131, 78)(85, 154, 315, 985, 1230, 302, 131, 78)(96, 204, 394, 1088, 1341, 373, 148, 90)(96, 204, 394, 1088, 1341, 373, 148, 90)(108, 260, 464, 1214, 1383, 455, 184, 110)(108, 260, 464, 1214, 1383, 455, 184, 110)(102, 264, 461, 1168, 1250, 424, 165, 100)(102, 264, 461, 1168, 1250, 424, 165, 100)(102, 252, 415, 1108, 1113, 415, 163, 98)(102, 252, 415, 1108, 1113, 415, 163, 98)(100, 244, 421, 1043, 994, 407, 158, 98)(100, 244, 421, 1043, 994, 407, 158, 98)(93, 216, 355, 1021, 873, 355, 142, 88)(93, 216, 355, 1021, 873, 355, 142, 88)(68, 137, 247, 856, 647, 216, 93, 62)(68, 137, 247, 856, 647, 216, 93, 62)(64, 127, 227, 816, 576, 194, 88, 61)(64, 127, 227, 816, 576, 194, 88, 61)(64, 127, 227, 816, 576, 194, 88, 61)(67, 130, 235, 886, 757, 202, 91, 65)(67, 130, 235, 886, 757, 202, 91, 65)(70, 138, 199, 871, 795, 210, 96, 63)(70, 138, 199, 871, 795, 210, 96, 63)(67, 131, 199, 897, 836, 207, 94, 65)(67, 131, 199, 897, 836, 207, 94, 65)(77, 128, 188, 904, 901, 218, 100, 68)(77, 128, 188, 904, 901, 218, 100, 68)(78, 130, 201, 984, 978, 223, 100, 67)(78, 130, 201, 984, 978, 223, 100, 67)(80, 129, 194, 892, 847, 218, 100, 69)(80, 129, 194, 892, 847, 218, 100, 69)(76, 113, 176, 834, 875, 206, 95, 70)(76, 113, 176, 834, 875, 206, 95, 70)(80, 117, 188, 724, 910, 238, 107, 77)(80, 117, 188, 724, 910, 238, 107, 77)(74, 125, 183, 659, 874, 228, 97, 70)(74, 125, 183, 659, 874, 228, 97, 70)(70, 124, 167, 584, 778, 223, 96, 68)(70, 124, 167, 584, 778, 223, 96, 68)(70, 124, 167, 584, 778, 223, 96, 68)(88, 125, 169, 621, 755, 214, 92, 65)(88, 125, 169, 621, 755, 214, 92, 65)(246, 184, 161, 660, 674, 196, 119, 68)(246, 184, 161, 660, 674, 196, 119, 68)(337, 199, 149, 624, 533, 138, 124, 84)(337, 199, 149, 624, 533, 138, 124, 84)(469, 230, 149, 606, 447, 127, 291, 166)(469, 230, 149, 606, 447, 127, 291, 166)(637, 313, 162, 519, 420, 131, 359, 226)(637, 313, 162, 519, 420, 131, 359, 226)(756, 400, 174, 427, 362, 160, 465, 353)(756, 400, 174, 427, 362, 160, 465, 353)(828, 423, 178, 240, 326, 171, 476, 461)(828, 423, 178, 240, 326, 171, 476, 461)(918, 466, 177, 212, 284, 180, 492, 553)(918, 466, 177, 212, 284, 180, 492, 553)(870, 471, 176, 188, 270, 170, 432, 549)(870, 471, 176, 188, 270, 170, 432, 549)(798, 425, 148, 165, 262, 156, 384, 541)(798, 425, 148, 165, 262, 156, 384, 541)(703, 345, 121, 159, 262, 122, 259, 481)(703, 345, 121, 159, 262, 122, 259, 481)(576, 287, 107, 143, 255, 123, 230, 406)(576, 287, 107, 143, 255, 123, 230, 406)(360, 191, 83, 137, 253, 105, 185, 269)(360, 191, 83, 137, 253, 105, 185, 269)(343, 122, 64, 118, 261, 102, 184, 259)(343, 122, 64, 118, 261, 102, 184, 259)(292, 113, 67, 122, 278, 97, 173, 236)(292, 113, 67, 122, 278, 97, 173, 236)(245, 112, 65, 109, 251, 104, 218, 223)(245, 112, 65, 109, 251, 104, 218, 223)(239, 110, 52, 90, 204, 78, 234, 173)(239, 110, 52, 90, 204, 78, 234, 173)(230, 110, 53, 67, 191, 70, 240, 177)(230, 110, 53, 67, 191, 70, 240, 177)(223, 114, 54, 72, 175, 74, 243, 373)(223, 114, 54, 72, 175, 74, 243, 373)(140, 99, 44, 61, 139, 74, 242, 399)(140, 99, 44, 61, 139, 74, 242, 399)(137, 92, 50, 86, 241, 75, 185, 415)(137, 92, 50, 86, 241, 75, 185, 415)(136, 80, 49, 89, 240, 71, 157, 426)(136, 80, 49, 89, 240, 71, 157, 426)(140, 74, 48, 89, 239, 71, 164, 428)(140, 74, 48, 89, 239, 71, 164, 428)(157, 84, 51, 83, 237, 63, 109, 271)(157, 84, 51, 83, 237, 63, 109, 271)(176, 108, 59, 88, 235, 68, 134, 246)(176, 108, 59, 88, 235, 68, 134, 246)(193, 112, 55, 75, 144, 64, 229, 230)(193, 112, 55, 75, 144, 64, 229, 230)(234, 123, 61, 89, 190, 85, 244, 346)(234, 123, 61, 89, 190, 85, 244, 346)(238, 118, 68, 93, 186, 89, 243, 428)(238, 118, 68, 93, 186, 89, 243, 428)(226, 113, 69, 95, 200, 96, 250, 429)(226, 113, 69, 95, 200, 96, 250, 429)(210, 92, 67, 113, 228, 97, 237, 436)(210, 92, 67, 113, 228, 97, 237, 436)(197, 89, 69, 114, 264, 102, 144, 432)(197, 89, 69, 114, 264, 102, 144, 432)(144, 95, 70, 106, 241, 88, 120, 343)(144, 95, 70, 106, 241, 88, 120, 343)(108, 102, 74, 110, 244, 102, 94, 217)(108, 102, 74, 110, 244, 102, 94, 217)(88, 94, 83, 351, 264, 111, 71, 200)(88, 94, 83, 351, 264, 111, 71, 200)(86, 112, 152, 559, 296, 136, 70, 153)(86, 112, 152, 559, 296, 136, 70, 153)(81, 143, 256, 675, 326, 154, 72, 127)(81, 143, 256, 675, 326, 154, 72, 127)(87, 162, 309, 764, 500, 183, 79, 83)(87, 162, 309, 764, 500, 183, 79, 83)(95, 187, 335, 881, 784, 268, 108, 84)(95, 187, 335, 881, 784, 268, 108, 84)(95, 187, 335, 881, 784, 268, 108, 84)(111, 233, 369, 975, 976, 323, 144, 98)(111, 233, 369, 975, 976, 323, 144, 98)(136, 285, 422, 1109, 1205, 413, 186, 119)(136, 285, 422, 1109, 1205, 413, 186, 119)(155, 331, 466, 1261, 1324, 492, 220, 142)(155, 331, 466, 1261, 1324, 492, 220, 142)(223, 332, 445, 1250, 1331, 495, 223, 146)(223, 332, 445, 1250, 1331, 495, 223, 146)(225, 318, 425, 1182, 1210, 455, 211, 141)(225, 318, 425, 1182, 1210, 455, 211, 141)(260, 290, 394, 1056, 1065, 415, 189, 129)(260, 290, 394, 1056, 1065, 415, 189, 129)(247, 235, 314, 813, 788, 318, 145, 104)(247, 235, 314, 813, 788, 318, 145, 104)(235, 151, 169, 505, 651, 184, 88, 70)(235, 151, 169, 505, 651, 184, 88, 70)(171, 123, 138, 408, 547, 161, 72, 59)(171, 123, 138, 408, 547, 161, 72, 59)(163, 115, 136, 380, 494, 148, 66, 54)(163, 115, 136, 380, 494, 148, 66, 54)(74, 106, 137, 374, 487, 144, 62, 44)(74, 106, 137, 374, 487, 144, 62, 44)(66, 96, 130, 360, 475, 137, 60, 43)(66, 96, 130, 360, 475, 137, 60, 43)(67, 78, 81, 193, 354, 103, 48, 38)(67, 78, 81, 193, 354, 103, 48, 38)(61, 69, 84, 276, 462, 107, 48, 33)(61, 69, 84, 276, 462, 107, 48, 33)(61, 79, 96, 331, 481, 110, 51, 34)(61, 79, 96, 331, 481, 110, 51, 34)(61, 76, 92, 332, 471, 112, 50, 35)(61, 76, 92, 332, 471, 112, 50, 35)(57, 76, 94, 349, 472, 112, 49, 34)(57, 76, 94, 349, 472, 112, 49, 34)(45, 64, 86, 342, 428, 100, 45, 32)(45, 64, 86, 342, 428, 100, 45, 32)(41, 54, 67, 257, 235, 60, 33, 29)(41, 54, 67, 257, 235, 60, 33, 29)(37, 38, 55, 214, 242, 51, 29, 29)(37, 38, 55, 214, 242, 51, 29, 29)(34, 38, 56, 250, 312, 50, 32, 27)(34, 38, 56, 250, 312, 50, 32, 27)(35, 37, 59, 235, 317, 48, 33, 28)(35, 37, 59, 235, 317, 48, 33, 28)(34, 41, 67, 251, 382, 61, 33, 26)(34, 41, 67, 251, 382, 61, 33, 26)(38, 51, 71, 255, 383, 64, 35, 28)(38, 51, 71, 255, 383, 64, 35, 28)(37, 48, 68, 220, 350, 62, 33, 26)(37, 48, 68, 220, 350, 62, 33, 26)(52, 57, 80, 176, 276, 66, 133, 42)(52, 57, 80, 176, 276, 66, 133, 42)(220, 83, 86, 150, 254, 73, 155, 59)(220, 83, 86, 150, 254, 73, 155, 59)(257, 102, 92, 135, 137, 219, 380, 433)(257, 102, 92, 135, 137, 219, 380, 433)(295, 119, 100, 130, 121, 245, 431, 485)(295, 119, 100, 130, 121, 245, 431, 485)(406, 149, 104, 168, 104, 268, 497, 594)(406, 149, 104, 168, 104, 268, 497, 594)(461, 170, 145, 341, 111, 282, 511, 666)(461, 170, 145, 341, 111, 282, 511, 666)(475, 176, 154, 356, 119, 305, 532, 756)(475, 176, 154, 356, 119, 305, 532, 756)(462, 166, 152, 364, 104, 228, 422, 683)(462, 166, 152, 364, 104, 228, 422, 683)(448, 160, 150, 379, 104, 214, 399, 675)(448, 160, 150, 379, 104, 214, 399, 675)(353, 135, 159, 386, 116, 186, 326, 597)(353, 135, 159, 386, 116, 186, 326, 597)(284, 104, 118, 251, 117, 163, 282, 529)(284, 104, 118, 251, 117, 163, 282, 529)(150, 72, 103, 227, 109, 118, 230, 397)(150, 72, 103, 227, 109, 118, 230, 397)(137, 74, 96, 205, 109, 108, 195, 293)(137, 74, 96, 205, 109, 108, 195, 293)(105, 66, 93, 186, 102, 77, 129, 227)(105, 66, 93, 186, 102, 77, 129, 227)(99, 63, 68, 138, 73, 73, 101, 193)(99, 63, 68, 138, 73, 73, 101, 193)(72, 61, 60, 129, 55, 67, 82, 153)(72, 61, 60, 129, 55, 67, 82, 153)(64, 61, 60, 124, 49, 54, 75, 133)(64, 61, 60, 124, 49, 54, 75, 133)(70, 61, 60, 114, 38, 38, 68, 117)(70, 61, 60, 114, 38, 38, 68, 117)(64, 49, 53, 99, 34, 30, 62, 120)(64, 49, 53, 99, 34, 30, 62, 120)(63, 49, 52, 79, 34, 27, 46, 111)(63, 49, 52, 79, 34, 27, 46, 111)(63, 57, 65, 74, 33, 28, 40, 134)(63, 57, 65, 74, 33, 28, 40, 134)(63, 58, 60, 72, 29, 28, 35, 125)(63, 58, 60, 72, 29, 28, 35, 125)(51, 52, 63, 76, 34, 29, 32, 121)(51, 52, 63, 76, 34, 29, 32, 121)(50, 52, 65, 61, 33, 31, 31, 116)(50, 52, 65, 61, 33, 31, 31, 116)(58, 50, 67, 87, 33, 32, 28, 110)(58, 50, 67, 87, 33, 32, 28, 110)(55, 45, 54, 83, 34, 33, 25, 77)(55, 45, 54, 83, 34, 33, 25, 77)(52, 47, 63, 86, 36, 31, 27, 77)(52, 47, 63, 86, 36, 31, 27, 77)(55, 45, 58, 79, 31, 29, 25, 73)(55, 45, 58, 79, 31, 29, 25, 73)(52, 43, 57, 78, 30, 27, 22, 62)(52, 43, 57, 78, 30, 27, 22, 62)(44, 42, 52, 47, 28, 28, 25, 60)(44, 42, 52, 47, 28, 28, 25, 60)(43, 39, 59, 69, 33, 26, 25, 55)(43, 39, 59, 69, 33, 26, 25, 55)(42, 34, 56, 70, 31, 27, 23, 51)(42, 34, 56, 70, 31, 27, 23, 51)(33, 29, 55, 68, 31, 28, 23, 46)(33, 29, 55, 68, 31, 28, 23, 46)(30, 29, 54, 68, 32, 27, 24, 35)(30, 29, 54, 68, 32, 27, 24, 35)(31, 33, 54, 69, 38, 27, 23, 32)(31, 33, 54, 69, 38, 27, 23, 32)(31, 33, 44, 48, 55, 30, 24, 31)(31, 33, 44, 48, 55, 30, 24, 31)(31, 33, 32, 42, 56, 115, 26, 30)(31, 33, 32, 42, 56, 115, 26, 30)(30, 33, 30, 42, 65, 257, 42, 31)(30, 33, 30, 42, 65, 257, 42, 31)(30, 33, 29, 40, 67, 268, 43, 29)(30, 33, 29, 40, 67, 268, 43, 29)(27, 31, 28, 37, 91, 372, 54, 36)(27, 31, 28, 37, 91, 372, 54, 36)(28, 29, 27, 35, 85, 395, 63, 51)(28, 29, 27, 35, 85, 395, 63, 51)(27, 31, 28, 30, 89, 393, 65, 53)(27, 31, 28, 30, 89, 393, 65, 53)(28, 31, 27, 29, 83, 325, 58, 53)(28, 31, 27, 29, 83, 325, 58, 53)(26, 29, 27, 28, 85, 321, 77, 94)(26, 29, 27, 28, 85, 321, 77, 94)(25, 29, 29, 28, 55, 195, 72, 92)(25, 29, 29, 28, 55, 195, 72, 92)(22, 31, 28, 27, 46, 147, 65, 86)(22, 31, 28, 27, 46, 147, 65, 86)(26, 28, 27, 27, 37, 108, 65, 87)(26, 28, 27, 27, 37, 108, 65, 87)(26, 29, 26, 26, 46, 83, 64, 87)(26, 29, 26, 26, 46, 83, 64, 87)(32, 36, 35, 43, 67, 68, 42, 42)(32, 36, 35, 43, 67, 68, 42, 42)(31, 39, 39, 88, 260, 57, 36, 40)(31, 39, 39, 88, 260, 57, 36, 40)(32, 37, 39, 121, 274, 51, 35, 36)(32, 37, 39, 121, 274, 51, 35, 36)(34, 43, 44, 140, 294, 47, 33, 31)(34, 43, 44, 140, 294, 47, 33, 31)(35, 46, 53, 151, 302, 45, 33, 28)(35, 46, 53, 151, 302, 45, 33, 28)(36, 66, 55, 241, 331, 47, 28, 25)(36, 66, 55, 241, 331, 47, 28, 25)(45, 77, 71, 307, 376, 59, 36, 31)(45, 77, 71, 307, 376, 59, 36, 31)(53, 87, 88, 334, 433, 66, 38, 34)(53, 87, 88, 334, 433, 66, 38, 34)(52, 89, 97, 394, 469, 77, 37, 34)(52, 89, 97, 394, 469, 77, 37, 34)(54, 90, 96, 402, 490, 189, 48, 38)(54, 90, 96, 402, 490, 189, 48, 38)(52, 77, 97, 374, 501, 193, 50, 39)(52, 77, 97, 374, 501, 193, 50, 39)(45, 65, 89, 331, 436, 245, 51, 36)(45, 65, 89, 331, 436, 245, 51, 36)(36, 53, 75, 308, 405, 257, 50, 31)(36, 53, 75, 308, 405, 257, 50, 31)(36, 47, 64, 353, 475, 262, 54, 33)(36, 47, 64, 353, 475, 262, 54, 33)(32, 46, 65, 355, 479, 284, 50, 30)(32, 46, 65, 355, 479, 284, 50, 30)(31, 43, 61, 347, 460, 327, 55, 30)(31, 43, 61, 347, 460, 327, 55, 30)(29, 40, 53, 337, 435, 331, 57, 27)(29, 40, 53, 337, 435, 331, 57, 27)(28, 41, 52, 324, 425, 330, 57, 26)(28, 41, 52, 324, 425, 330, 57, 26)(27, 42, 54, 222, 287, 326, 55, 25)(27, 42, 54, 222, 287, 326, 55, 25)(33, 50, 57, 261, 264, 256, 50, 27)(33, 50, 57, 261, 264, 256, 50, 27)(33, 48, 52, 250, 257, 237, 51, 26)(33, 48, 52, 250, 257, 237, 51, 26)(33, 50, 54, 268, 246, 266, 52, 27)(33, 50, 54, 268, 246, 266, 52, 27)(36, 49, 55, 292, 267, 283, 51, 32)(36, 49, 55, 292, 267, 283, 51, 32)(39, 63, 51, 293, 305, 306, 52, 31)(39, 63, 51, 293, 305, 306, 52, 31)(35, 59, 45, 242, 296, 331, 55, 31)(35, 59, 45, 242, 296, 331, 55, 31)(34, 61, 48, 266, 350, 370, 52, 33)(34, 61, 48, 266, 350, 370, 52, 33)(35, 62, 47, 273, 402, 318, 43, 33)(35, 62, 47, 273, 402, 318, 43, 33)(35, 65, 53, 269, 376, 304, 52, 31)(35, 65, 53, 269, 376, 304, 52, 31)(32, 51, 50, 232, 352, 287, 51, 34)(32, 51, 50, 232, 352, 287, 51, 34)(30, 46, 45, 243, 398, 260, 48, 30)(30, 46, 45, 243, 398, 260, 48, 30)(32, 71, 43, 222, 349, 200, 51, 31)(32, 71, 43, 222, 349, 200, 51, 31)(41, 75, 42, 180, 291, 358, 111, 38)(41, 75, 42, 180, 291, 358, 111, 38)(42, 74, 34, 145, 310, 401, 128, 65)(42, 74, 34, 145, 310, 401, 128, 65)(42, 74, 31, 131, 318, 411, 134, 66)(42, 74, 31, 131, 318, 411, 134, 66)(44, 74, 30, 102, 253, 414, 135, 68)(44, 74, 30, 102, 253, 414, 135, 68)(45, 59, 33, 173, 308, 397, 138, 68)(45, 59, 33, 173, 308, 397, 138, 68)(42, 52, 33, 192, 339, 270, 104, 66)(42, 52, 33, 192, 339, 270, 104, 66)(324, 76, 44, 208, 322, 364, 108, 78)(324, 76, 44, 208, 322, 364, 108, 78)(347, 112, 50, 212, 297, 366, 112, 81)(347, 112, 50, 212, 297, 366, 112, 81)(357, 116, 52, 211, 292, 378, 111, 84)(357, 116, 52, 211, 292, 378, 111, 84)(364, 111, 51, 179, 228, 375, 112, 84)(364, 111, 51, 179, 228, 375, 112, 84)(367, 111, 52, 175, 186, 365, 114, 83)(367, 111, 52, 175, 186, 365, 114, 83)(195, 107, 45, 243, 209, 196, 99, 57)(195, 107, 45, 243, 209, 196, 99, 57)(185, 69, 38, 251, 266, 327, 106, 54)(185, 69, 38, 251, 266, 327, 106, 54)(188, 77, 45, 254, 281, 362, 121, 54)(188, 77, 45, 254, 281, 362, 121, 54)(179, 91, 46, 247, 321, 381, 124, 54)(179, 91, 46, 247, 321, 381, 124, 54)(177, 93, 46, 236, 315, 411, 130, 56)(177, 93, 46, 236, 315, 411, 130, 56)(162, 81, 44, 162, 291, 446, 125, 51)(162, 81, 44, 162, 291, 446, 125, 51)(128, 83, 45, 145, 305, 359, 116, 48)(128, 83, 45, 145, 305, 359, 116, 48)(171, 79, 41, 146, 289, 335, 104, 46)(171, 79, 41, 146, 289, 335, 104, 46)(218, 74, 37, 127, 252, 321, 95, 52)(218, 74, 37, 127, 252, 321, 95, 52)(224, 76, 38, 174, 270, 277, 79, 51)(224, 76, 38, 174, 270, 277, 79, 51)(226, 76, 39, 257, 305, 333, 101, 49)(226, 76, 39, 257, 305, 333, 101, 49)(227, 85, 43, 266, 255, 413, 106, 65)(227, 85, 43, 266, 255, 413, 106, 65)(182, 80, 40, 263, 254, 406, 104, 64)(182, 80, 40, 263, 254, 406, 104, 64)(127, 74, 39, 263, 257, 417, 104, 58)(127, 74, 39, 263, 257, 417, 104, 58)(203, 71, 39, 265, 291, 536, 103, 70)(203, 71, 39, 265, 291, 536, 103, 70)(248, 78, 44, 220, 283, 500, 81, 76)(248, 78, 44, 220, 283, 500, 81, 76)(262, 70, 40, 215, 371, 434, 67, 66)(262, 70, 40, 215, 371, 434, 67, 66)(263, 66, 43, 219, 378, 452, 89, 70)(263, 66, 43, 219, 378, 452, 89, 70)(259, 66, 47, 224, 388, 522, 105, 107)(259, 66, 47, 224, 388, 522, 105, 107)(196, 65, 50, 204, 377, 409, 108, 103)(196, 65, 50, 204, 377, 409, 108, 103)(132, 55, 49, 202, 368, 389, 114, 112)(132, 55, 49, 202, 368, 389, 114, 112)(89, 48, 51, 208, 315, 436, 172, 110)(89, 48, 51, 208, 315, 436, 172, 110)(67, 45, 49, 204, 325, 444, 289, 117)(67, 45, 49, 204, 325, 444, 289, 117)(119, 42, 47, 201, 321, 348, 292, 93)(119, 42, 47, 201, 321, 348, 292, 93)(236, 63, 40, 246, 375, 408, 330, 123)(236, 63, 40, 246, 375, 408, 330, 123)(251, 71, 38, 226, 372, 415, 339, 118)(251, 71, 38, 226, 372, 415, 339, 118)(253, 72, 38, 219, 361, 380, 326, 123)(253, 72, 38, 219, 361, 380, 326, 123)(255, 72, 40, 226, 409, 438, 240, 122)(255, 72, 40, 226, 409, 438, 240, 122)(255, 72, 40, 226, 409, 438, 240, 122)(238, 71, 41, 224, 417, 444, 315, 125)(238, 71, 41, 224, 417, 444, 315, 125)(201, 53, 45, 194, 356, 400, 299, 97)(201, 53, 45, 194, 356, 400, 299, 97)(190, 43, 46, 185, 352, 400, 320, 95)(190, 43, 46, 185, 352, 400, 320, 95)(191, 53, 59, 253, 512, 475, 326, 96)(191, 53, 59, 253, 512, 475, 326, 96)(222, 80, 67, 268, 496, 403, 325, 101)